
19981019,3.837980334229439,566887.432,4.970459624154845,2.3788516045255474,-8.232917610799207,-9.629513257837493,-8.06114067727223,-5.5689957732413,0
19981020,-1.8563775760106704,844052.631999999,3.8161693812418775,1.017256758080558,-9.301696802833643,-9.924569354431215,-7.789232442911427,-4.80956726629647,0
19981021,0.21727265093626374,417003.876,5.697672191199954,2.613246809135929,-7.716805567218048,-7.660133617432209,-5.000892182383089,-1.310825845998814,0
19981022,0.0,609733.198,9.363903036292177,5.9039023304302285,-4.573800577720798,-4.04414080316228,-1.0654442586278146,3.442488543318202,0
19981023,0.0,954385.206999999,11.779482156285503,7.941689166127899,-2.59096118253278,-1.608653667389044,1.8054048654333343,4.402642773302561,0
19981026,-0.3379680578288547,602513.726,12.517603666813812,8.346523398003496,-2.056465803777366,-0.6441363938528925,2.40979604605304,3.6661992838428836,0
19981027,-1.351427779631583,1080726.454,13.933998065753109,9.382486016299715,-0.8749469778805675,0.5855621475796509,3.7170909378835373,3.0161243799946886,0
19981028,0.0,542717.35,16.56762984542662,11.532160122200656,1.2410598823703252,2.6784479591275825,6.071989608315679,3.3400933284345196,1
19981029,0.4689818413057355,1670213.844,18.630543583221503,13.100143668009151,2.791634282484316,4.371599660849309,7.824047905037817,3.473939565227652,1
19981030,-0.10867838009624863,532986.905,14.357190082175645,8.659953010078985,-1.088213928992994,0.8685473985290244,3.02094683555798,-0.7197743575774187,1
19981102,2.2930562728701194,529847.781,10.739187169653752,4.9467105480038995,-4.311275452457589,-1.9666384624682662,-0.7965122028944138,-3.5533443952397255,1
19981103,-0.22168620571624753,376982.766,7.825357265103558,1.9408373267157097,-6.810130711963046,-4.0774885546808175,-3.8065848023275652,-5.029896885161738,1
19981104,0.0,288936.592000001,6.8314362985704244,0.798015464122331,-7.616713330984679,-4.456398221016711,-4.810009562432629,-4.239468741970615,1
19981105,-1.056743020626902,437249.885000001,6.181370265383315,0.004190124256103046,-8.140558665687578,-4.598411332285812,-5.111583114220356,-2.730160735482619,1
19981106,-0.440045957537478,385404.689,2.371140086791788,-3.7524785873890782,-11.351308851391284,-7.324660074008888,-7.701996312237341,-4.143482881324546,0
19981109,0.0,247002.303,2.671321258341301,-3.650824277089277,-10.935905942167128,-6.692761360025419,-6.591649189704464,-2.4308102955195294,0
19981110,0.0,212206.697,4.849614002309529,-1.7894723184513166,-8.858105951500505,-4.325820974919865,-3.826502147314871,0.18953459707030706,0
19981111,-0.11949402662933269,394454.722,7.55652546500212,0.6192531756402606,-6.253731859662362,-1.4936087994442948,-0.5650018230157523,2.6588884660320247,0
19981112,0.8602964466132922,393362.572,8.507170926543289,1.3967805318000757,-5.223891814702095,-0.25882709786175,1.1728484536137624,3.145061281023001,1
19981113,0.7529376583638921,269471.273,7.9567755044281805,0.7489540307529579,-5.481007014068211,-0.9180232449477,1.2266208852090426,1.543522199645957,1
19981116,0.21981099424844963,287103.067,6.848355512579657,-0.4216170374656587,-6.253702045140545,-2.024374714338185,0.5467798481930192,-0.30821094457963283,1
19981117,0.09949194502877824,550801.054,4.533920292738909,-2.6776848612022714,-8.038122212287393,-4.178248218189703,-1.3148441981982935,-2.4047073903133627,1
19981118,-0.5127132755562942,407561.442,4.4523106949510876,-2.863929614225881,-7.922494068687082,-4.192644397458643,-1.1591037586065505,-1.902770355568981,1
19981119,0.19709357459567586,512572.593,3.71936335443524,-3.6555014480867563,-8.345239254683873,-4.605159289540464,-1.6110669708076033,-1.7081272265935379,1
19981120,0.21374210334546487,270875.466,3.8571969249875493,-3.6752531291536035,-7.884933362756019,-4.119038699380567,-1.614843401193669,-0.8156583410738817,1
19981123,0.4089102618097626,423789.0,3.3216543763863147,-4.3112286962093,-8.072899357536132,-4.190245371682046,-2.170797885510227,-0.6576767669032866,1
19981124,-0.39994707317134864,467478.636,1.083646858218496,-6.513692320367113,-9.805878373149136,-5.704588406527958,-3.9360084682925853,-2.156818198840104,0
19981125,0.09682787835996715,357006.339,2.1207978213727317,-5.703098996419407,-8.685677542992591,-4.117945937767908,-2.4484088960613253,-0.7111805940793838,1
19981127,0.30504999360824797,85506.7990000001,1.5372639747738412,-6.3758030434815485,-8.963135823697659,-3.944845356948612,-2.366305636531808,-0.861058124932631,0
19981130,-0.9026133043692562,478401.258,1.8612426898379313,-6.206135256226533,-8.378841135029957,-3.081230168906857,-1.4842331809702,-0.154827095495983,0
19981201,-0.40836394576885904,534261.613,3.2224386180332387,-5.061804851455396,-6.859327154801253,-1.4359227802375256,0.1763378186283287,1.2049666022998968,0
19981202,-0.4110622443690714,515537.242,3.9761920035307106,-4.4809659192963505,-5.885682614786946,-0.5203965903900716,0.9719235762928422,1.3814462616942424,0
19981203,0.199551074954918,306295.16,5.146407950903714,-3.5186563387957053,-4.541149300014254,0.7061357414399363,2.0619931753013425,1.9456359555226894,0
19981204,0.6230324943898308,348892.601,6.468451589508059,-2.458847271637973,-3.108099159655029,1.9863069492692274,3.098607833759904,2.2667241261515976,1
19981207,0.41835431633539405,320494.403,5.800654951701239,-3.221625941101356,-3.471787198149002,1.2066597202092177,2.282851390205493,0.860263913153592,0
19981208,-0.5991216588417776,465138.467,2.374514208608564,-6.456312887559186,-6.2927635402505455,-2.0411577122699764,-0.9293839988275194,-2.2443688628564553,0
19981209,-3.152606238224824,762539.324,5.989386644337456,-3.240234456772044,-2.814093573372413,1.3994007745446815,2.111340799665052,0.8351475821645294,1
19981210,0.10378925120772703,543310.728,9.159521383281591,-0.4661053959627165,0.17694854209799826,4.400556418219457,4.50771545031055,3.1065066425120835,0
19981211,-0.3259981516949414,599951.589,8.413922558697104,-1.2424869078392056,-0.32172829915754747,3.7477867216693648,3.1572532579724832,2.0636191955855057,0
19981214,-0.43708153944375294,408497.743,10.366106263744072,0.43210503053023847,1.7069589274313741,5.561330561330545,4.217564020713613,3.0599527449921236,0
19981215,-1.6510468047791276,490727.874,10.794756384961108,0.7394305601227819,2.309289707333133,5.838581058862213,3.9181464430560022,1.8229200920749893,0
19981216,-0.10763871415071402,458428.458,12.966001543287534,2.6203009410699023,4.496770838575496,7.572103959427184,5.12631473000856,2.515614603078746,1
19981217,0.7952628401518878,428157.937,13.907634974638503,3.39196104650837,5.535949039986029,8.08067728521697,5.205064405287805,2.5129628689269152,1
19981218,0.0,714636.881,9.397489244848794,-0.7633216135843947,1.5433581011296091,3.567714757395777,0.7766750792235142,-1.7337276662880647,0
19981221,-2.339124256398114,543935.731,12.370559634433489,1.8683514676994992,4.501266387104903,6.023405174215312,2.9144178659496425,0.5787207957759307,1
19981222,-0.12343876142429089,584816.544,11.052741139549166,0.5895991822182278,3.352657377532501,4.446468080885439,0.8652836749482646,-0.6498169083549943,1
19981223,0.4483715046194471,505863.069,12.729208240855543,2.052822193549861,5.0114164005452215,5.489808084681195,1.761495467305549,0.8969109386414068,1
19981224,-0.10323625550034482,119054.194,7.945579745314813,-2.29753493273553,0.7477576280866879,0.7492672907320556,-2.452357138451889,-2.344133365153363,0
19981228,-0.32408490545971824,345459.657,6.9771266244124375,-3.1730650615734666,0.06184465193441351,-0.41248378246162243,-3.2085469085649763,-2.7911181062168904,1
19981229,0.10341233784596107,388057.367,8.313092971461959,-1.9515658620791687,1.2874620619450798,0.5211685594176813,-1.8260895324631103,-0.8630082756800495,1
19981230,0.0,251215.217,4.8776052468869935,-5.033116539225129,-1.8802388648441353,-2.741936746209982,-4.415582043917104,-2.8990929084064496,0
19981231,0.2037879651148788,402412.563,6.48767202062787,-3.5758427785124343,-0.3864445227678051,-1.3697121793121976,-2.384504694543303,-0.30226339793244533,1
19990104,-0.2059922585483971,632875.010999999,7.582475925157003,-2.572966529606381,0.6493926041011047,-0.46425940559579776,-0.8239422471639168,0.7966998379384768,1
19990105,0.11713664811785249,591682.272,4.728709957658605,-5.099052210595532,-1.8977545765470731,-3.024525648751804,-3.0345696597819543,-1.4579208114517286,1
19990106,-0.21416469342054506,329544.558,3.1714088848780966,-6.460181564353568,-3.173355135453377,-4.353276616969155,-3.6678210477872746,-1.9805991983607372,1
19990107,-0.5005491681865237,391802.229,1.0570820023981848,-8.297933817676187,-4.93118267651476,-6.268150260477025,-4.75458731774164,-3.2709263308511587,1
19990108,0.09827119275702789,630690.298,2.3521962973456323,-7.001773986466682,-3.476778644776437,-4.903515556202203,-2.6124822282290983,-1.253123620055496,1
19990111,-0.2993282945173904,781263.477,-1.401074089286924,-10.309596952114871,-6.69166234194262,-7.927895576975584,-5.330945921682712,-3.2124296258765095,0
19990112,-0.30682883082597,604632.819,0.9473843975775987,-8.093620580203769,-4.14342862325046,-5.400376356546182,-2.5137292046634023,-0.1808224423373325,0
19990113,-2.880537940139274,924502.957,2.8832001582176576,-6.272013705350413,-2.0759650380005006,-3.2541988046345365,-0.1414712703904427,1.7943324163899117,0
19990114,-0.42817280862117696,821207.964,7.000880667543308,-2.4750018709174144,1.9535638303559009,0.7966366250788636,3.6674524519708886,4.707174700920481,1
19990115,1.0904807193498112,545495.694,8.090956251080716,-1.3993331748228153,3.0445973110842024,2.06378069341172,4.602282552308499,4.67847570465157,0
19990119,0.7479338294795778,533949.217,6.068610127220349,-3.1410302330826605,1.184155158461665,0.5218423740730482,2.812273649858709,1.217335933458041,0
19990120,-0.9645308493998851,347644.414,7.353517084208945,-1.8776021370714813,2.4491612424683558,1.8635144504942056,3.8390692774484023,1.1883966051954047,0
19990121,0.6535641564696553,513821.006,9.968155279349043,0.584102299873472,4.863542306706715,4.4914626115564,5.744338486717907,2.288631786032122,0
19990122,-0.6462128005189274,654095.489000001,8.69417727107955,-0.46375239502114984,3.5834802824693672,3.4138623683930573,3.7798134132082306,0.7860302474469085,0
19990125,0.6845829666761445,688579.192,12.015916905403822,2.7142266742762104,6.68292422355358,6.652290892937973,6.037881194632409,3.153242561661672,0
19990126,-0.23498120713846277,747248.017,12.152215134592952,3.0222865869120175,6.796698993018165,6.629667927037489,4.8122404359267765,2.137990882503762,0
19990127,0.5812322350093787,766752.372,12.685759101768044,3.6832270149714117,7.305921994156492,6.919780883098935,4.171892844693962,1.641903131739362,0
19990128,0.5922727456402082,1255607.557,14.646783774266728,5.652983588387707,9.12886838960693,8.538757497214714,4.861398941298027,2.571306521350094,0
19990129,-0.7951810010910314,423789.049,14.507930162615231,5.680487326171363,8.943884177774173,8.006938711893358,4.062292545791451,1.3910905092044545,0
19990201,0.46557451371874337,444853.699,15.151416340444815,6.433016266045863,9.445367649836808,8.26784193716197,4.023121790456581,1.4154976445184546,0
19990202,0.11281357044694419,1199279.712,15.951506280932168,7.294964998490908,10.07969033407466,8.693003507476444,3.8385330133530333,1.4535076229741195,0
19990203,0.0,513976.867,15.497958223230357,7.031505039403209,9.530651497790151,7.8260558192830345,2.7089423099408436,0.5770175151415788,0
19990204,0.5849812611689474,2267957.937,16.147589270731196,7.855053007486679,10.021132337658118,7.873562203203707,2.760334325475672,0.898050749406034,1
19990205,0.22558795143257107,1682673.458,15.557318114213789,7.489508253468149,9.329472816505149,6.665610598233424,1.6298656152918451,0.21045097055622056,1
19990208,1.1344811433924697,505083.063,12.35035388271315,4.67337682368127,6.159450010853532,3.259019867700997,-1.2083138159924238,-2.08690833895052,0
19990209,0.23711472419738075,588873.474,11.95985721817687,4.43616284537666,5.666335124043479,2.239123929492582,-1.539877737720339,-1.7535089844251124,0
19990210,0.6998712880389835,619299.979,12.730183242162354,5.288403856761969,6.230342695596246,2.365297761331277,-0.8799818424197562,-0.6147719959547449,1
19990211,0.23987574781407467,780451.923,12.719796939714673,5.435601702715127,6.059738840312956,1.8792855499310166,-0.7354751495627975,-0.044178554993079974,1
19990212,-0.8012273641283719,556403.04,10.397863957741663,3.4468203316026376,3.781443450156669,-0.3794478553560078,-2.438427326901315,-1.2171548954963654,0
19990216,0.5692264781388653,697866.878,11.280147657348444,4.453929654991834,4.516220108494594,0.2685752830478961,-1.3356614696289035,-0.23941665670517923,0
19990217,0.5831888955241341,862416.73,13.745910832107446,6.943985318321495,6.72773934194623,2.1357327002345188,1.042136999868922,1.6627000888474568,0
19990218,0.4800695252579581,1306176.068,16.046383406797187,9.261041152643049,8.778760271791395,3.815079480822546,3.0531588455711947,3.1505418267642478,0
19990219,0.13753102834175368,1027276.964,18.71290779017217,11.919073205540258,11.11926471216069,5.835173179314848,5.230173880692582,4.483267566463163,1
19990222,-0.37505616672423986,600407.099,18.80186977878718,12.159171147268367,10.963151572209807,5.478280671616477,5.059590219806742,3.0538803182628182,1
19990223,0.6235788291212988,818257.959,17.1965194336153,10.73470269029723,9.314099524993004,3.833077157688456,3.217304388001909,0.5884289135233517,1
19990224,-1.316014962505095,781071.283,14.51554309993323,8.28128268615965,6.766503371291174,1.352224579401153,0.6255946295716178,-1.865053804742851,1
19990225,-0.22926132829392032,553923.909,14.62919942181126,8.520986001433608,6.820607453659043,1.3783226601423009,0.566192543971355,-1.5253283413209544,0
19990226,0.8449580794838069,527118.818,14.99850294500187,9.049977231668514,7.151696612727078,1.7092171563098137,0.7011455595801067,-0.5723928772325682,0
19990301,0.7131934821044728,432293.064,15.186085857982567,9.423158479476275,7.343515554068968,1.8882155827400267,0.4604995938261571,0.23116070148613144,0
19990302,-0.3491943287475258,622564.138,15.677937349368662,10.089997175192174,7.860238125289262,2.350630773576646,0.5256246130914727,0.9503975766754796,0
19990303,-0.48559024487106717,575925.99,15.58906549451082,10.202178838013216,7.852872774754157,2.3360380770145044,0.3145505582482532,0.7028723234620563,1
19990304,0.9852291947804672,524174.584,17.065050467426726,11.779326368238205,9.194414083251443,3.6262052036710424,1.5390580634918731,1.5764888348832988,1
19990305,0.36573215042151225,460802.633,14.170327965682056,9.21690959316028,6.5514560673949855,1.1856911025064405,-0.5697188098491016,-0.7969142468483128,1
19990308,0.0,629227.082,11.036396162308423,6.362406666259764,3.703186353582665,-1.3688415716980615,-2.633777149982143,-2.810141224957214,0
19990309,-0.22734883065156983,395261.528,12.012548245536738,7.456648044036338,4.70538058899211,-0.46355369133434843,-1.3269358429824316,-1.3269652162163754,1
19990310,1.1779010339386287,417108.432,12.06442538684377,7.680309239501644,4.748139381521027,-0.4017993829341212,-1.0659989637061278,-0.6727077886902357,0
19990311,0.6899221670721,627676.819,9.786319143895568,5.679509773897387,2.6215597788088716,-2.2869417495363167,-2.6646076862183246,-1.4507433709111628,0
19990312,0.11574557452166037,795945.839999999,13.162592700869261,8.97198241144569,5.745419398719653,0.7067639565894368,0.47956851959024677,1.7560512860288062,1
19990315,0.5853550031755593,430433.683,10.852693950063367,6.7908029021901255,3.5038999277086695,-1.384715795512067,-1.21850424236035,-0.30614066666080675,0
19990316,-0.22602037687585044,515187.861,10.421868201502706,6.416686377746047,3.066097819516599,-1.7376557540290967,-1.1590698706661013,-0.41460430373168333,0
19990317,-2.016685336949454,1032855.704,11.29191085431283,7.3056040327811,3.8455456635811696,-0.8628029007723729,-0.01712752785803864,0.506102234538043,1
19990318,0.8618099830369276,675554.787,14.357434173193449,10.340208594430404,6.569899162162887,1.9516658119372778,2.9808307969618015,2.4520314742716294,0
19990319,-1.2126437124498124,980483.081,12.219748044556063,8.395852847997407,4.443878312023801,0.33324582808797587,1.2362104660250746,0.7163696460213852,0
19990322,0.7489207359146124,492411.104,14.63737947963287,10.844411946094809,6.468916583724601,2.691733478252902,3.105502262332899,2.2148269819074398,0
19990323,0.25459809005914286,951664.053,13.73792024616204,10.098258476234966,5.444721262126756,2.0436883039640112,2.148455873204663,0.8107689833373174,0
19990324,-0.382292319541494,2002803.415,16.6350542724129,13.055956245303191,7.816374958293958,4.580429501990977,4.373131023988359,2.435071110736932,1
19990325,-0.12067465551595002,768830.076000001,16.39442059015207,12.996788245602545,7.340742195904528,4.316800593706838,3.5802018727958305,1.8836471809839297,1
19990326,-0.23545352906863873,478156.131,13.181710881294958,10.023536238576709,4.21775957612286,1.533273381294944,0.7352226327046606,-1.102044040443328,1
19990329,0.0,485438.759,13.968577618965906,10.86557343891735,4.831609012233661,2.2864007452989754,1.141208414033204,-0.31644561033611635,1
19990330,-0.23062758115172063,562600.89,10.634793478066534,7.681093305840777,1.7228535842624633,-0.5039242445010331,-1.8635542868721433,-2.715446088568153,0
19990331,2.6537070255001374,791142.829,10.47131755689706,7.556205788931044,1.476737603022565,-0.45584703491596734,-1.971240085099794,-1.826963761076981,0
19990401,-0.4873880049403159,1101650.388,11.796378109212371,8.855181743786106,2.5940033760829584,0.9373008850893856,-0.6043128100907988,0.12465537078029652,0
19990405,-0.5001580425041164,1015966.498,14.541033721931967,11.485478682855184,5.032699303993217,3.387966457802684,1.6119715647447568,2.3480157918549227,1
19990406,-1.0995696013870075,631395.584,12.257825498456345,9.231612245829055,2.8624032363542073,1.2474259729594397,-0.22584520858363652,0.6085197633567851,0
19990407,-0.12038410929756845,864276.127,14.620816496666873,11.511262291155314,4.983398191438689,3.249546615402299,1.7870041154567535,2.011876654503807,1
19990408,-0.2609311514518833,844443.827,14.315172214559944,11.187143549409138,4.630664380412741,2.828602403051632,1.6818876505013653,1.018314881773346,0
19990409,-0.49766891141863523,778591.973,13.348474617035427,10.219714349145212,3.6841189965218395,1.7351346851180358,1.044642196403451,-0.14738893411281478,0
19990412,1.5623486878207875,1250705.559,18.490979373123693,15.177484747732267,8.30775686755543,6.093757061235033,5.156299428645205,3.700054875883659,1
19990413,0.12206747059212773,700500.642,15.32119475109876,12.063547444290938,5.37899118156907,3.026533944509631,2.2215021220234434,0.38186983454823553,1
19990414,0.4918792654440243,970739.040999998,11.643434799314457,8.442584607502852,2.044729603630054,-0.35831254612320984,-1.151418307788958,-2.306678945859754,1
19990415,2.892343576750931,2559211.372,5.0591912123770975,2.0375323876986546,-3.837030270649163,-6.012104812625337,-6.527464193998759,-6.470013730660765,1
19990416,-0.10104473978360538,1372646.391,-4.315749105387583,-7.03424003099407,-12.157462258742603,-13.661772366619646,-13.486907376527787,-11.745115952765524,1
19990419,1.2793509427978644,2055638.556,-3.4840537004981726,-6.176270828102957,-11.113804357879989,-12.266639358342475,-11.188704924747931,-7.276100371305132,1
19990420,-0.49758048072092986,1541379.952,-9.23560100063162,-11.691766174473981,-16.058819433738,-16.52060445708771,-14.609221526510268,-8.560473062022252,0
19990421,-0.31429692086433825,459253.255,-6.4946818192305775,-8.986361667055512,-13.256787762416142,-13.161773188370478,-10.208446024759223,-2.544728348505555,0
19990422,0.11784691347746588,611717.872,-5.193837360853515,-7.6732024443479405,-11.800674823164611,-11.050047216809686,-7.256430201068163,0.7824722877650011,0
19990423,0.3110653049751689,529752.684,-2.536152641511958,-5.061509014736802,-9.104313956445504,-7.760878585482694,-3.246429575296803,3.2549423779630784,1
19990426,-0.11794299074200033,573446.959,-5.077734085524347,-7.4975993904539475,-11.214891085388638,-9.385326535085394,-3.7740713294157944,0.8992370236616762,1
19990427,0.6432808372095384,576235.759,-4.627964876656429,-7.026297908287901,-10.59437890080831,-8.174808681667807,-1.5917265479273155,0.34530433847277253,1
19990428,1.4788638867115829,1107382.527,-5.394588957087187,-7.728768186328009,-11.085505363127625,-8.223657655640055,-0.8590118512230109,-0.7127399996354221,1
19990429,3.23863579336164,1333445.471,-8.882011983981212,-11.057744422028854,-14.047961016932142,-10.778168377947049,-3.206543012857182,-3.621039213915071,1
19990430,0.4917907852934273,1096537.609,-13.542778653660228,-15.488978170681204,-18.021119615903082,-14.260599103583289,-7.2286338933159335,-6.3171181298137205,1
19990503,-0.09284651131627145,997063.033000001,-13.159937687547579,-15.000847104768223,-17.198198586244377,-12.711261707514343,-5.839447323962531,-4.210062838901734,1
19990504,0.27857558350904915,899293.484,-17.535576328800975,-19.18811804697159,-20.862116447320584,-15.849962280956861,-9.727354940740195,-6.364656802152241,0
19990505,0.0,1236915.617,-15.597665960509438,-17.184611663918787,-18.549267836670708,-12.617405418729497,-6.684626779248743,-2.0320584521437057,1
19990506,-0.270269647012169,1076016.794,-16.29360346461707,-17.73021923664972,-18.789035169644944,-12.057531460355436,-6.3267310978436075,-1.2292656829036142,1
19990507,-0.6204111029357819,754014.349,-19.28680620544478,-20.526698128096797,-21.218419830037153,-13.833289245837044,-8.0083269795471,-3.4585640517224014,1
19990510,-0.18742310989122166,775429.96,-19.338700651539583,-20.420915886107185,-20.790268210464603,-12.360032243880974,-6.611616679768524,-2.1160602063430565,0
19990511,-0.17394177974370859,834130.125,-18.85620664015488,-19.797376806125285,-19.84922217433925,-10.425956400677903,-4.608296062753021,-1.230543194053375,1
19990512,0.5543882515533975,1053832.44,-18.30114270946865,-19.086412206878762,-18.83040483600939,-8.535668940100436,-2.625625007022556,0.07609074259262288,1
19990513,0.0,701476.48,-18.93142892165057,-19.543647689410435,-18.98127681387134,-8.169212939747467,-2.310611885579309,-0.07813771047148158,1
19990514,-0.44442579171627444,768188.380999999,-19.605864785882638,-20.073624036101894,-19.1483944786943,-8.204504339336317,-2.4538621087252888,-0.8401237853944806,0
19990517,0.0,886513.704,-19.128644646671912,-19.444454807491613,-18.20611656651521,-6.916490124756241,-1.213742288782584,-0.31142437122209526,0
19990518,-0.19187523330026773,956922.998999999,-17.082458552218306,-17.259149922157402,-15.730054535356947,-4.168927592705534,1.235808516255901,1.7906079007984632,0
19990519,0.0,643700.669,-14.928285466841265,-14.974559910733278,-13.161714276376744,-1.2680360148372927,3.7895648479500657,3.621279287733522,0
19990520,0.0,493791.509,-13.922188745537317,-13.878015262849722,-11.76784128903078,0.32838502805116593,4.743147773852912,3.622848939345287,0
19990521,-0.3904688997058208,680985.031,-12.21304387599362,-12.1012715516204,-9.71087487180969,2.7917563397031397,5.959417233592841,3.8500426097381295,0
19990524,-0.2041675334917057,554186.475,-11.749260981262049,-11.571719893755501,-8.893242635212623,3.6567276105141615,5.581732327655035,2.568688828358957,0
19990525,0.0,486241.877,-11.637689862153945,-11.416555083935258,-8.462032411857727,4.139666874093523,4.83725063378185,1.3892110596445029,0
19990526,-0.39378580284506454,408437.146,-11.434052402869787,-11.150720727496836,-7.936329469881322,4.694324680397822,4.255094588660029,0.8094566823485363,0
19990527,-0.400609558810831,581148.421000001,-9.823284751397294,-9.477392234299801,-5.958896767708232,6.652625573313782,5.044988305263484,1.6993551223439878,0
19990528,0.0,334946.214,-7.291397360845221,-6.929771472961105,-3.013363322958828,9.292726331128122,6.477251379742782,3.440497164355675,1
19990601,-0.3135760116892107,816565.695,-7.186543421637732,-6.8261533574741105,-2.621160027952499,9.091137793024586,5.13931770535544,2.533358744679505,1
19990602,-0.0944718199546782,480849.726,-11.25543577251961,-10.91711251375183,-6.525214747318254,3.9151769343044567,-0.18748649101544,-2.0680342818562933,0
19990603,-0.49400297089261835,350198.927,-10.221659280356471,-9.899581374221981,-5.115705218704371,4.7785089065396695,0.3920105086119289,-1.2303423892360237,1
19990604,-0.19032634004158264,257295.178,-10.620742394886804,-10.335846585731135,-5.149194838955584,3.9660564333479087,-0.44879390760254434,-1.500182019413767,1
19990607,0.18691049918075617,288571.209,-12.067894397970393,-11.785579062180176,-6.272697132917901,1.82751860696421,-2.0895296486178623,-2.0708145742140474,0
19990608,0.0,206914.768,-11.157827311702187,-10.85503926939753,-4.940053814966782,2.3747613143662734,-1.148068799693316,-0.19531581718439678,0
19990609,-0.397044928252852,261763.358,-10.3289010520956,-9.97769253741572,-3.69174920076962,2.804282797820384,-0.37812287341072714,0.5338810040194061,0
19990610,0.0,413059.139,-7.7247570248765935,-7.335126900997074,-0.6275506093262297,5.142071205559459,2.093362876422588,2.899083492798878,1
19990611,0.21058199474044584,390102.963,-8.514972779033588,-8.115715305119338,-1.2032665159658222,3.5911715245238076,1.0656596655638533,1.5417895477477317,1
19990614,0.40548378064877044,347579.774,-8.296498140074371,-7.867215311387571,-0.6668133274669231,3.13388714451422,1.4147684092636332,0.9280128794848231,1
19990615,-0.7779003405112397,293193.487,-11.97788475372881,-11.494232890508856,-4.264764279890653,-1.4706368999088717,-2.157018848016871,-2.953911083401272,1
19990616,-0.09343331496610402,156225.988,-11.981356460075203,-11.455935411226385,-3.929474617282773,-1.8254833377254969,-2.1131501401499713,-2.6185285450755766,0
19990617,-0.3904688997058208,232644.413,-11.466339510541665,-10.883333574066356,-3.011925912016945,-1.5062181329712774,-1.4437238503796306,-1.2687591177617599,0
19990618,-0.4886305957553254,431701.424,-10.578898541151057,-9.958578114109335,-1.7193628373603165,-0.779392514626121,-0.5137906999900222,0.13561199039254,0
19990621,-0.39378580284506454,189967.112,-10.564994067736928,-9.899944923365855,-1.3861066157470714,-0.9126465171914377,-0.7071403095452358,0.6298146562077668,0
19990622,-0.40047079376122957,216929.31,-8.952036034968994,-8.22527284077648,0.7591870171464736,0.6693882888818303,0.8087141260335846,1.7584196331855504,1
19990623,-0.9058210342910809,572828.83,-7.943740138540241,-7.153244280041811,2.201813137645416,1.548457935655298,1.6536094500514802,1.9868738206753538,1
19990624,0.3901026484650797,498567.67,-11.081031679605935,-10.242149845594412,-0.9655064600228792,-1.9748285183795695,-1.4690659663097634,-1.576765082205354,0
19990625,-0.9058210342910809,296120.883,-7.77673904427653,-6.8251919946757695,2.904330442715654,1.5476478315382152,2.1276325268019773,1.4788762235687936,1
19990628,0.40548378064877044,431239.383000001,-7.436243800247998,-6.408591156353795,3.294573217071275,1.9201731930722512,2.425577976880923,1.1681032758689551,0
19990629,-0.6167253309867708,381012.782,-7.336924023039068,-6.2577296908124165,3.402673893044234,2.001307447702081,2.000494980200772,0.9052637894484153,0
19990630,-0.6240715480568012,1119927.894,-6.117920672559821,-4.965321766330018,4.641376500390998,3.047916345056394,2.69393415614949,1.8431115508911986,0
19990701,-0.20256495600257857,656334.512,-3.4826818664059456,-2.261446610222404,7.4912837261550385,5.587282353185918,4.717241164111427,3.021052193630254,1
19990702,-0.2157836941246911,268542.53,-4.942563909601221,-3.685974571824232,5.844722770427142,3.6999352392946485,2.541947275058937,0.8739367597633787,0
19990706,-0.19736858773781052,468370.078,-5.850070814531802,-4.549781729090705,4.872718796634351,2.3697025282941415,1.0541357460101766,-0.424228450973286,0
19990707,1.2525182873330531,421224.885,-4.321342469066546,-2.9619690369657556,6.529330489351809,3.6572736371659498,2.19602374330064,0.5376977643526398,0
19990708,-0.3166117154038158,765877.16,-4.439186413171877,-3.0665757659795343,6.358682813093794,3.20492969319732,1.6899567579781856,0.043293378116029596,1
19990709,0.515013988824299,824885.723999999,-4.664836472819698,-3.2718746560387375,6.057086689755279,2.796126644294785,0.7260366192352233,0.039880307882138165,1
19990712,-0.8147733519414341,302129.381,-6.429011051901029,-5.008903268882749,4.000165665561371,0.7729929993749706,-1.2968601355947562,-1.5119241552939062,0
19990713,-0.0989645610196791,411672.484,-5.090938000864984,-3.5773144732490545,5.272063500139912,2.049316915562085,-0.13692217671153167,-0.2607678021726388,0
19990714,-0.5126296550265079,308320.2,-4.832886811066263,-3.221766494770474,5.350579034441254,1.9367765255893838,-0.1355371395214305,0.12256207764133968,1
19990715,1.265835950989168,816161.267,-2.8577104699298808,-1.1289368850242585,7.177477065174405,3.556900210105857,1.5948804892762625,1.8800836263027558,1
19990716,0.8300558996363625,1253659.77,-4.42251405162403,-2.6166144152530046,5.199458903794306,1.527062481780174,0.0747715172685238,0.2091761324407152,0
19990719,-0.6192377878125472,391951.747,-6.135567140988904,-4.2591134884398265,3.085631524650254,-0.5099989206637926,-1.5738730349177863,-1.6358219145416841,0
19990720,0.5107713866478472,225402.993,-5.009541422747064,-3.0275466218514757,3.9736998431129553,0.3897424310890063,-0.47449443279496917,-0.47451981904678064,0
19990721,-0.09947373535384844,352510.034,-4.2419526003815164,-2.178520833226805,4.429972024610147,0.9411647377115329,0.31376419866105465,0.18928138536992006,1
19990722,-0.4175918612040817,611346.203,-3.583272654294119,-1.4357209570392386,4.770499437807642,1.4036026625019062,0.9134275209246201,1.018635969505257,0
19990723,-0.310150446863155,475611.468,-5.6635936702142216,-3.4773575081310812,2.1883994174303054,-1.0938903128922424,-1.170648146517786,-0.9143023878817522,0
19990726,0.42246042199189404,378239.468,-2.319798374711707,0.016864578398533194,5.409112442669793,2.1271389824508424,1.899015560495412,1.7942724466263091,1
19990727,0.09967203033718909,476381.801,-3.7883083939735247,-1.3861304704314854,3.4410782002664786,0.4056574766834154,0.23434457312698034,0.016500973659930772,1
19990728,-0.829800183093046,666501.732,-3.908966189158624,-1.439528151834273,2.932209544364266,0.09136752093040144,0.0034010300262258654,-0.18247932531746833,1
19990729,-1.039069944730311,855083.879,-4.469244647735187,-1.931707007178697,2.0540448510260005,-0.5567117718061068,-0.39590877326728,-0.5608284098850157,0
19990730,-0.4175918612040817,597787.876,-3.2260810946412706,-0.5793385941845881,3.1278839696699325,0.7414378230676206,0.7898738476342868,0.22708969605591908,1
19990802,1.3766878783175436,523218.622,-2.6547803818097013,0.07616534740544785,3.490894510838642,1.2298101298566728,1.025816131201805,0.8898546225878061,1
19990803,-0.6042022492824822,515052.914,-5.2729437125989405,-2.5557428140933576,0.5456233068125131,-1.527358891608345,-1.6702092069153875,-1.528163823830524,1
19990804,-0.31070601269010906,1646536.033,-5.163940225601755,-2.304338301943801,0.5623929902306543,-1.3238619196293662,-1.4202588377479954,-1.1244334776916216,1
19990805,0.09745172507089214,617046.471,-5.62233573497137,-2.6527211327447997,-0.013753469682228878,-1.6992800096198994,-1.65372320703855,-1.3398735382241127,1
19990806,0.0,897322.368000001,-6.560271139534911,-3.4890009199997083,-1.0716979822000867,-2.539905917011547,-2.5092929889079034,-1.615975757635855,1
19990809,0.20693424957051706,750014.555000001,-8.014430491566422,-4.8549166406372155,-2.6243948149304903,-3.9540791425893986,-3.437988052475395,-2.0510893331250926,0
19990810,-0.3992586942064692,770381.267000001,-7.788399004420407,-4.478242479364709,-2.3639342017759826,-3.575137894613292,-2.795006454641459,-1.3030062981653083,1
19990811,0.0,522008.85,-6.042871655184237,-2.5578979605556427,-0.5297426231671237,-1.6873034566726806,-0.7458873736707152,0.7328654056355449,1
19990812,-0.11084887926203395,331978.628,-8.402847142548712,-4.868111663873209,-3.09537612213266,-3.8895222340536413,-2.853667351487973,-1.2322902542732634,0
19990813,0.19297929970448954,343463.214,-6.864464698097043,-3.1492521127906175,-1.5434006255190933,-2.161762494978326,-0.8690969406742638,0.47961394281602193,0
19990816,-1.2997704697260877,232446.599,-7.0581296477422715,-3.217026526228875,-1.8393927031981592,-2.3395254080674643,-0.6555374792955874,0.04821610250712968,1
19990817,-0.3058096445763154,329528.539,-6.797120415625326,-2.8200672190281537,-1.699917515111952,-2.000787915348345,-0.25260073620840184,0.09962204685633087,1
19990818,0.0,510830.403,-7.923786838427367,-3.869611715379462,-2.9673743695691477,-3.0133195600656313,-1.1884061493589515,-0.7112353405845523,1
19990819,-0.09552166251442482,427682.811,-7.86616637297193,-3.66273804460107,-2.95324299690098,-2.7366227137388153,-0.8905875919061844,-0.7524579206416646,1
19990820,0.5055037017866679,718010.554000001,-8.269433473052272,-3.946070736656753,-3.3495304136664883,-3.020481365295375,-1.1293533180634248,-0.8655481087147442,1
19990823,0.2903565166569302,1082452.342,-11.277553477498492,-6.94203389830506,-6.454817066043223,-5.753489187609572,-4.015078901227351,-3.2058912916423243,0
19990824,-0.7462072559228125,614191.118000001,-13.198088886654155,-8.782304032033196,-8.37760601171075,-7.323401425221602,-5.511809044077669,-3.9371860330114097,0
19990825,-0.09278963028540152,474999.066,-10.065258094830002,-5.289006559185319,-5.080246460619999,-3.6424900760070282,-1.6447672092808625,0.015433377282167721,0
19990826,-0.9687645799188855,402110.652,-9.066260721847987,-4.054525008673148,-4.054302496680232,-2.311397159981352,-0.44844540680216555,1.40618009115815,0
19990827,-0.09536970357539318,330753.741,-7.503443770801252,-2.220625158138506,-2.459535997197279,-0.3938501138597607,1.356974639444118,2.9965550127483924,0
19990830,-0.49219177249802654,458002.107,-7.548443823297022,-2.0964866014461743,-2.554351339855351,-0.18705717931579194,1.3697028620040108,2.1045877134350226,0
19990831,-0.3090450507930552,489545.871,-5.164973980400521,0.5813959864020204,-0.1342302285936411,2.3935414568981646,3.8217906668394455,2.8875275399016873,0
19990901,-0.21620547924273975,533799.763,-3.07602334713579,2.9835057374669893,1.9770705048869157,4.567016058795651,5.606088387040902,3.6120830595749194,1
19990902,-0.3106119054537497,516802.667,-4.635498181417339,1.5027704578018912,0.29913429456030943,2.8570909692093465,3.572738294440061,0.9782772060960306,1
19990903,0.30434046894427097,618019.179000001,-6.610750747363017,-0.430969156405469,-1.8444945275120053,0.7543891487050512,1.2604256842755897,-1.3003994928476097,1
19990907,-0.09490215636098895,497662.335,-7.775665344008161,-1.5489484502138882,-3.044073820320182,-0.4964448005965182,-0.39212505780073115,-2.4854196878396784,1
19990908,-0.3004858662595624,389554.38,-7.660803557364853,-1.3811396653459402,-2.8906691868706895,-0.3576145299455712,-0.9004398240703584,-1.8388765705838857,0
19990909,-0.5826052776900238,250055.916,-8.081386291895782,-1.7749542428180676,-3.2938708285003795,-0.686478300605962,-1.571539153437873,-1.256604346871986,1
19990910,0.49313267095266067,404714.073,-7.152076027664066,-0.7857490746151978,-2.2648694720436153,0.2728910968244855,-0.7791496201051983,0.273621663744405,1
19990913,-0.09346330549355031,267818.591,-8.841083696270491,-2.545718137618108,-3.9036825976583875,-1.4235226343744223,-2.4319821391862364,-1.067680819226194,0
19990914,-1.361625705749534,410073.221,-9.614985938318082,-3.316090497051399,-4.6025412906420415,-2.1135643698068254,-3.040427039180802,-1.513307065906284,0
19990915,0.20554063966957956,471017.797,-7.625907562394486,-1.1110258390488297,-2.4322599544372716,0.10589337549054892,-0.6387980351380275,0.6544375231505362,0
19990916,-0.9843835449960531,311153.3,-7.242848635838802,-0.6502473111745556,-1.9345591541593106,0.5029835328431743,0.21090113629458918,0.8950355471835696,0
19990917,0.496607131033165,505011.958,-6.3920731692362995,0.3062238974708928,-0.9649235960732342,1.3597225866732612,1.3196752066743982,1.65923186525637,1
19990920,1.2050889733989922,384195.021,-6.085648888385923,0.667812144856707,-0.5845874556608803,1.5839946276498897,1.5984463478350763,1.3880539006115145,0
19990921,-0.8880179497639816,499805.514000001,-7.259914622064195,-0.5930634069584505,-1.7964430716630886,0.08563290401537443,0.2632243526235094,-0.41227149989316325,0
19990922,-0.19441503145604194,401804.725,-5.2643263295979015,1.4745636200872723,0.337443987888749,1.7838075092805963,2.1570645314077233,1.2145979898874488,0
19990923,0.0,776964.781000001,-3.3869807074767664,3.4117929656881567,2.325156135426937,3.4427798427267753,3.678904649927963,2.3975321752762575,0
19990924,0.0,462289.621,-1.4771109099676634,5.332149681651856,4.375400675119827,5.109623165533323,5.1500452572701825,3.401954185717273,0
19990927,0.1027132544642299,594284.709,0.10675889897684467,6.899435339124081,6.004742627310701,6.415097800311828,5.879521544891215,3.7610868739273635,0
19990928,-1.2712106347748064,629810.284000001,-0.8247478601200755,5.75936797628873,4.9306725633399,5.066091014321226,3.920353385136853,1.399992732973096,0
19990929,-0.12116220058189824,699176.402000001,1.5369611138420032,8.078245273744214,7.331854233370071,7.23325052144915,5.415631518114554,2.3807309588021965,1
19990930,-0.20609667616532665,533952.787000001,0.47445347577840136,6.744077349344386,6.1334055372708765,5.9304844323403385,3.478118000862243,0.4978391394412253,1
19991001,-0.5170651951767762,386491.895,-2.324381769875327,3.5904940731657584,3.155369916206806,2.8446760678520366,0.14362354383814446,-2.1486817903126867,1
19991004,0.10046130189644772,284203.279,-1.9723090722706367,3.7792619169656434,3.4455151204510286,2.946399282419267,0.0434648898000959,-1.3992311635058947,0
19991005,-0.1968054262067562,308856.592,-3.925943172433175,1.526336532258263,1.3969921905397735,0.6524576830679364,-2.344268920557396,-2.7639615124898564,0
19991006,-0.9362710961821974,534105.922,-1.9867303989840719,3.3871891897427653,3.41592761756512,2.3724244224152113,-0.7257189087334048,-0.10041168277894363,1
19991007,0.20256478580649168,319269.207,-0.9242878541326667,4.3051717402720975,4.475838393141229,3.0806921868976933,0.08270748661854971,1.2636627749047413,1
19991008,0.0,339175.67,-4.797553649028399,0.08413648481773998,0.3841412055843911,-1.101665436782729,-3.5144616959478627,-2.1968957232338737,0
19991011,-0.40208305120218535,136435.943,-5.594898248119483,-0.8720770187253457,-0.43393452915906566,-2.1427604121782133,-3.780491708422093,-2.293079887229616,0
19991012,-0.5254301660802001,387563.91,-3.5322791193699974,1.1959535086108408,1.7640821069523014,-0.3448371267094182,-1.4010297324556915,-0.22984111333846555,0
19991013,-0.833518361138562,307784.618,-2.09760663343824,2.61979210531014,3.2272166969091076,0.8457174357442986,0.43988127595173865,1.2965727746259277,0
19991014,-0.42788455239816997,560596.892,0.5294095297986576,5.276054972553021,5.9015577303515006,3.1476372021119214,3.1536375427426178,3.7440029346644312,0
19991015,-0.10315463722196644,417882.915,0.9570645137521905,5.641650789975018,6.255802448343715,3.2257007673441924,3.2961853836194592,3.007483974190284,1
19991018,0.10541913518659729,394760.708,3.1659194995818054,7.852356736202022,8.4194283163327,5.025480773109504,5.070283905563812,3.4246696911918546,1
19991019,0.5308810684768309,252659.138,0.6316356854896766,5.130086845218245,5.5954392490025855,2.034095469412669,2.0298332078698165,0.01715396337863307,0
19991020,-0.22558488660971032,505523.685,1.9320428850420468,6.451626788537407,6.796168511113178,3.004543582521802,2.979394454703655,0.49628675054137406,0
19991021,-0.6490418841556902,727088.807,3.036145937712379,7.570950002820738,7.818579898506591,3.830663468022045,3.7333071853987114,1.1017056154480562,1
19991022,-1.4196273545284597,534871.578,2.8951072502972037,7.352778739403094,7.492401370785714,3.5181532499805455,2.82328725582544,0.5993027992689887,1
19991025,-0.6623559269113375,477602.438000001,2.298464465752044,6.667127451477469,6.727305236134409,2.848424035887853,1.411522644726931,0.19160820125800443,1
19991026,-0.20609667616532665,697032.756000001,0.7363250649309545,4.998194025299385,4.994027402445809,1.2480941315023046,-0.5544631497039844,-1.34930232069062,1
19991027,-0.7495884177761825,328303.701,-0.03663799288765613,4.12513143235827,4.087727674762607,0.5794503714024098,-1.5231281814458066,-1.7275756176342458,1
19991028,1.4714451082607698,440392.346000001,-0.7847590709333915,3.2828245945238628,3.1821334141307167,-0.09471683357028504,-2.1393703499408345,-1.738542694438188,1
19991029,0.4175947259806304,367963.461,-2.005848371943159,1.9445056757592611,1.7855358279908224,-1.3510583072709659,-3.0828617385545276,-2.027418558799552,0
19991101,0.0,234896.431,-3.2807054062305094,0.5817646005061126,0.3406477787954154,-2.590295176603864,-3.758524899139367,-2.2442908722078783,0
19991102,-0.9362710961821974,706986.01,-1.840099131574614,2.03556140422741,1.6267511879403391,-1.2565285515320075,-2.1033712928068113,-0.28428641651647424,1
19991103,-0.5225572256961765,375007.274,-0.9927399658168795,2.8631798536632846,2.224369136076569,-0.4660673437879054,-0.9946401739103473,0.7656082989523044,1
19991104,0.31836186019783724,327691.073,-1.5886705762837037,2.1384168616344006,1.4059485695521439,-1.057943910848427,-1.174373024668572,0.31164060255302906,1
19991105,0.31508897899491073,384348.061,-2.5661636076037655,1.0285941344193068,0.24108750130120096,-2.1845365195997632,-1.6514623327756095,-0.5770114533955246,0
19991108,0.11651779694865799,338557.908,-2.324276915483867,1.1733036865925461,0.34964497688722934,-2.1555919638336865,-0.9884677909701408,-0.5448860644206012,0
19991109,1.4839767878832004,455417.497,-0.31847496600190245,3.141439753345275,2.2343167685743603,-0.34496361428022354,1.1322654652285304,1.1834442379761108,0
19991110,-0.42596769593735506,417224.94,-0.3777293821782992,2.967524824349885,2.0493790671748076,-0.5261336237069395,1.0920380596821133,0.9962925513987111,1
19991111,-0.644889803357662,387857.964,-0.7475055053142614,2.4845141253584866,1.589010540772864,-0.874383314444469,0.6942762802921116,0.44114799678843253,1
19991112,0.42279761812858485,707243.887,-1.012291496183749,2.1227451222587246,1.2078887911024339,-1.0824571155063545,0.30766697031922835,-0.1521350893716452,1
19991115,0.0,612903.852,-1.254105468399218,1.7460907936426084,0.8084559436612423,-1.1525969444693973,-0.16491142552946797,-0.6238823967058825,1
19991116,0.0,410377.997,-2.532504668829424,0.3433702622135386,-0.6567790391068681,-2.324444421950853,-1.4104166772105522,-1.4801581075678152,1
19991117,-0.09991910103241423,608795.74,-2.2549572807802662,0.5464966182202365,-0.5344251735270591,-1.884869864246968,-1.0193016314202463,-0.8298864624834291,0
19991118,0.4132231404958787,378880.576,-2.9901560841637047,-0.2907803202165386,-1.4426341654804336,-2.3770139283612455,-1.6414490727001136,-1.1339869116663177,0
19991119,0.0,310864.458,-2.113740398002621,0.5382849926074631,-0.7038514502218208,-1.2882589984251096,-0.8098265617431593,-0.019882379494778654,0
19991122,-0.9323206169530396,401400.158,-2.1552035144433757,0.4633785475052067,-0.9229619420644325,-1.1338082763722603,-0.8675142001550595,0.12981551199096042,0
19991123,0.32043305925062227,719112.006,-0.8680144182049021,1.7315135266877484,0.16425978424000734,0.23673307079547698,0.5007119309362971,1.1194889490360085,0
19991124,0.5349531620537731,226719.668,1.5190345631740958,4.1005354783982835,2.363232409180072,2.5741699296971463,2.7477211310438365,2.799509429304515,0
19991126,-0.4276105310797961,102252.073,0.5948845399545294,3.092922057316413,1.242900468706906,1.5701161623255588,1.688775483662888,1.1315032434935093,0
19991129,-0.9688703356171009,565429.688,1.8289921484916731,4.298462599394041,2.3048322440889706,2.63613799493062,2.6742505797166234,1.5810405683197144,1
19991130,-0.3325768318997055,423007.092,2.965342833501381,5.389569858428658,3.250531457777375,3.47611965316232,3.4164952787393004,1.6784753613780006,1
19991201,-0.8549609584302162,282258.413999999,0.7132603482268624,2.993416774609659,0.7962139301153323,1.0793264353824508,0.822135867784071,-0.8752490493208716,1
19991202,-0.8660643475007385,583080.183,2.078584734397268,4.295326098125816,1.9802177939731274,2.28937931615962,1.7419302142369617,0.3463203463203405,1
19991203,0.0,525867.952,-0.006700245263035162,2.074223656146864,-0.22006101916972684,0.09591305670966506,-0.6676260551338932,-1.6099673240540857,0
19991206,-1.0433020762719376,361077.779,-2.2044544462560918,-0.22800686462529107,-2.455187151760134,-2.1546707928339766,-2.8751036371929604,-3.0075828404529084,0
19991207,-0.32553763230666916,474741.845,1.214302283454911,3.1707678153010317,0.8971076932700415,1.0748475915688673,0.16446296716213704,0.7228551396631904,0
19991208,0.33280177494280094,430006.569,3.6044752238678313,5.49507730707893,3.1762516066752187,3.2754841359153843,2.087291132219355,2.5481735902591436,0
19991209,-0.209217796256916,559799.662,3.204347110378294,4.989021375792841,2.727690293940388,2.7045780995696234,1.5320424489102373,1.9472654331312906,0
19991210,0.32069528255343105,622033.572,5.418571049050365,7.136074559620031,4.824861881448464,4.6134035989438615,3.2442814311196435,3.067885471392252,1
19991213,0.4385976620582439,358947.36,3.862810762327033,5.463501360106549,3.135185783349307,2.8299960224557905,1.5264960504854623,0.30891370330722406,1
19991214,0.0,523433.363,3.126359289526999,4.60241857508044,2.2777520232056014,1.8794288666074985,0.7921959231247938,-0.7868713492894017,1
19991215,-0.22043736012693008,622946.187,0.6749427586456299,2.0515663198589618,-0.2823820673044677,-0.7181787170700618,-1.6081590250104836,-2.5949586260007536,1
19991216,0.0,437158.113,0.5477257077423793,1.8373759178020204,-0.49996518348306473,-1.0049465244089777,-1.596530727510486,-2.2203137612928203,1
19991217,0.5239128422914402,836428.462,0.2940081646083554,1.5050925973531375,-0.806830918569873,-1.4334723236228792,-1.880379232691353,-1.5003239107857236,0
19991220,0.9453247386938501,430615.23,0.25073191401933514,1.3917666093119743,-0.9744163948740447,-1.596497085184534,-2.170394719946577,-0.840494106166041,0
19991221,-0.42874328376126153,633293.448,1.9224713149083854,3.0118915590023945,0.5021437164187866,-0.1603938279755972,-0.6054857220397056,1.0562794059700356,1
19991222,0.20742088299778985,292909.576,2.733468108710598,3.7611846913398215,1.158670403221972,0.45806102222476747,0.27485238678606266,1.4617782988858576,1
19991223,0.10313326178572506,420116.241,2.3383634793079007,3.2740439232520964,0.6720309923304361,0.042104023244239445,-0.015600869041702855,0.7258592257152495,1
19991227,0.11801377682570259,505174.004,0.37227830727193734,1.2004258758033128,-1.2891311877060316,-1.8800107751709212,-1.4686814525956504,-1.2376566568749379,1
19991228,-0.41708447039410357,486153.898,-0.6162734022974028,0.12352859046771753,-2.2559065812020043,-2.7335406486006084,-2.013708193183983,-2.0453639652218083,1
19991229,-0.21109443204486594,423919.989,-3.264366766082696,-2.6177388453258206,-4.772442671196346,-5.0406264196409,-4.020867487013353,-3.6541310316221813,1
19991230,-0.30461355505950927,313603.422,-4.432748637768192,-3.8798116757157524,-5.866091881195847,-5.95713234362358,-4.695922564797377,-3.4434491027303005,1
19991231,-0.40136297194370407,213633.751,-4.043503395208101,-3.585882387449737,-5.418361011571575,-5.308355291782557,-3.8826367738434437,-1.8247593533216422,0
20000103,0.11188294125658983,813756.399999999,-4.426815179110017,-4.040654855719664,-5.6979501099371666,-5.493197030724054,-3.820388963477527,-1.2724009106298646,0
20000104,-0.3168115758075788,876294.531999999,-0.16491717966620026,0.10728184299042569,-1.4677768610776072,-1.39888303611093,0.4988766897252005,3.0431173446722095,1
20000105,0.10347154926322623,1190506.444,3.3485284192225775,3.4972832152864597,1.9652293575572355,1.96670789771547,3.9040813485966885,5.326263652860832,1
20000106,0.3170654312369202,1530738.605,-0.006930253220807978,0.010931014787059958,-1.3683721520593917,-1.195354445643209,0.7808339150853708,0.9776480294472314,1
20000107,0.6984899863779986,1182898.684,-4.751182264344178,-4.827824150556945,-6.010631925726254,-5.5430083374392645,-3.3413761122221337,-3.689002888637688,0
20000110,-0.2809962898038438,842362.732,-6.218107039871574,-6.379817673075201,-7.400240378905579,-6.486964432473028,-4.199219956199745,-4.814276416739115,0
20000111,-0.2900519298383382,713938.864999999,-3.095838502616135,-3.3714748760598137,-4.333611207822355,-3.0656502998592927,-0.7702435651623972,-1.0635073971823514,1
20000112,0.0,864577.901,-2.726570357164836,-3.10704370812075,-4.004490071924758,-2.424909325628596,-0.44118768058031693,0.4977438986906095,1
20000113,0.39840637450198535,1230829.18,-3.9822075059470166,-4.487743487401606,-5.229778391000827,-3.469445407657286,-1.7722172781788337,-4.849742843925157e-05,0
20000114,-0.29515938606847697,1328516.353,-6.391407319952807,-7.02587957497053,-7.544453364817018,-5.579008264462844,-4.008524203069668,-2.175773317591509,0
20000118,-1.2868646966814203,1200397.508,-4.05034679831065,-4.831194199801322,-5.225569999105521,-3.0306110854581827,-1.660231940257374,-0.20007687825916773,0
20000119,-1.0079742291124993,1163124.562,-1.7103484364523924,-2.636859593692903,-2.955314132174771,-0.5770986473748194,0.8960925535099598,1.9546386855263866,0
20000120,0.6148121182704225,641822.803,0.5224512599602914,-0.5569762973749576,-0.8306536423573427,1.7428735388099965,3.465775795817643,3.6119706346317275,0
20000121,0.5535273881561555,1137402.61,4.737137660655817,3.4540319587709742,3.2236245383981634,5.92542777954716,7.3568606600741795,6.168448149249715,0
20000124,0.7497861087345441,826385.535,3.2463910710118546,1.8626792149542066,1.6759793627336612,4.384978351611334,5.01285940214152,2.6171475979362846,0
20000125,0.32706973818696566,1268564.984,4.460663836255434,2.9387582881253356,2.74884293838616,5.409898576932195,5.118824855203519,2.0495321959273585,0
20000126,0.21199875326463144,1290019.852,7.171450297174367,5.465489074943779,5.255140096514492,7.779440688713847,6.814403017959457,2.9065593327816264,1
20000127,0.9748473489715153,1138010.884,5.725897031748717,3.8981443462826983,3.7058398124478633,5.894925760606155,4.535238877336158,0.4979668604882455,0
20000128,-0.42962784762463735,797170.641999999,4.408056241240016,2.478916072212969,2.3025123946195825,4.164866744764993,2.4042424115641317,-0.6667468568918354,0
20000131,0.21199875326463144,720938.037,7.270906999989204,5.193039777307232,5.001563793084928,6.538038863751193,3.8459636942059188,1.3420139075481397,0
20000201,0.6735629318820757,867012.414,10.546751969866875,8.28044811875975,8.029191419827471,9.121847866727615,5.584313073823296,3.3236674836940936,0
20000202,-0.4461580682062137,384814.796,8.408002315022319,6.115166928872803,5.841583997000253,6.704625425575555,2.603693710584172,1.142947197382826,0
20000203,0.0,462264.57,10.21957474561556,7.770479254063738,7.466724148413449,8.26459013856417,3.423480188142172,2.0050075444792537,0
20000204,0.6766419417843138,573189.925,10.930623334130843,8.325400225918234,8.024934478134336,8.517174797313457,3.552787531091564,1.4152722983011563,0
20000207,0.12947461453155346,989806.416999999,12.197550115119785,9.42506797417261,9.140175972889166,8.954830247521697,3.9030122550537185,1.6462415771134067,0
20000208,0.11461401192565106,622338.115,15.607728466348403,12.611797989176903,12.280778214632866,11.212891900126207,6.041232028087686,3.8329827208495906,0
20000209,-0.5982466702888585,882076.825,16.953645427979776,13.783447627718415,13.414358507467039,11.575911540551246,6.400240825856483,3.4780540096036705,0
20000210,0.8618274795420093,750913.681999999,18.599348563322778,15.243305340827082,14.840144710727515,12.155269008183176,6.713612225314836,3.4312177038198213,0
20000211,0.49504950495048666,1050822.404,19.813990346082626,16.28030408031669,15.796677172282012,12.18599157542049,6.37411641346729,2.918713052072094,0
20000214,1.028173068498996,1128729.352,24.26449955568901,20.490056195947336,19.87453535088047,14.874529092979888,8.819634788920999,4.643237086822134,1
20000215,0.4962292017143144,948875.453999999,19.816967535193566,16.11022449614461,15.368372410502044,9.637719459856203,4.1345587546852105,0.19057859177221695,1
20000216,2.021559040724244,797779.313,14.97180495306622,11.42396738578491,10.533631233043605,4.4670738607512295,-0.6349326098626108,-3.504867468481153,0
20000217,0.9918653802438462,677121.716,13.896353376859885,10.398561838360749,9.405790053722443,2.906551145666409,-1.8740702161270808,-3.619517332466255,0
20000218,-0.3618446599149122,657037.447000001,13.728147660234141,10.247112865044558,9.205742342440795,2.402283245556789,-2.250685290065378,-2.7496167265426528,1
20000222,-0.37067047748132104,512371.375000001,16.339349116784753,12.827237503130643,11.649848991558258,4.217511086229519,-0.33487042739069994,0.7886029140946336,1
20000223,-1.0831391812328701,841569.686,13.142661624450506,9.777209030081103,8.605318428573035,1.0106334140546953,-2.8367056501130565,-0.8542309855275338,0
20000224,-0.33736891900312155,958752.398999999,11.565495175992684,8.268450482400718,7.098077761977871,-0.548684799419852,-3.7208307603405766,-1.6432217457070994,0
20000225,0.0,998316.690999999,18.050195101452722,14.553181654460268,13.218081402329195,4.7161273862408395,1.9479829511346043,3.3592267979349284,0
20000228,0.5097235303894884,1158687.777,20.867565762338305,17.245821559827856,15.72073552859191,6.498713379011449,4.330033673764635,4.590405131709362,0
20000229,-0.12219821350519973,930664.841,20.67082202153395,17.043563509212547,15.333733478616848,5.7709106691044525,4.492738902124457,3.6975886629607184,0
20000301,-0.36473549785934867,595123.980000001,19.869319956635977,16.26622935156091,14.366285087799897,4.705822905756765,3.8231997501056854,1.825086207424573,0
20000302,-1.1593668337938674,424635.598,22.163855512071905,18.414774503307108,16.29924730241689,6.121153677840415,5.19958364070568,1.8628640018004887,1
20000303,0.0,1406038.882,24.8779420094144,20.925650962083047,18.6069779423294,7.850201120643539,6.575541041731328,2.958217466295894,1
20000306,-1.530425135214276,674101.524000001,20.112542952678833,16.233573200610145,13.881257993435714,3.3280274897144495,1.9244957394024227,-0.8693776291662384,0
20000307,-1.5623082900494891,647373.134,22.461409475151235,18.42234232987162,15.849991977675879,4.892044685918113,3.370791819117026,0.7541613839924809,0
20000308,-1.351399490270121,856670.74,25.88985268353027,21.665550485603475,18.728972023148298,7.393285426064862,5.121004174344454,2.5647768231587023,0
20000309,-0.6748361393982063,695997.554999999,27.601771075070175,23.243674027519333,19.922398774579047,8.410026230844544,5.0955552195436145,3.0734134940931255,1
20000310,0.15379261198852667,577154.106000001,28.48326013821449,24.039353010390897,20.237907890157558,8.753285494108464,4.929749258381531,3.217778956265225,1
20000313,-1.0755691228525934,527623.291,25.728462637612438,21.2937031143441,17.141967330237367,6.165784431526636,2.2580131848147396,0.05592180040920125,0
20000314,0.5450523987571678,474468.509000001,27.27934758281108,22.694188082574076,18.032025119806182,7.340993469903618,2.946870556638046,0.48396440044236305,1
20000315,-1.0866068321635607,1066723.253,26.801656500929028,22.152387580510638,17.024962411938873,6.626578206146698,1.9589453019847838,-0.05193389753723662,1
20000316,-0.2398153873998975,1036370.571,16.39624741708269,12.121047947994693,7.15696595828116,-2.2194989517503623,-5.960935732492711,-6.512299965309726,1
20000317,-2.7329968674857676,877661.024,10.50282442157392,6.450703740961375,1.6257261672412993,-7.080127020156423,-9.610943451382962,-8.472232969640686,0
20000320,0.11944663413224063,563110.288000001,15.891187726783112,11.608431668702519,6.317228597389624,-2.6819530276863492,-4.871587346479487,-2.44284914822816,1
20000321,0.0,700528.172999999,13.934309951736576,9.700947502442748,4.176768424481078,-4.25210967340777,-5.794214313208801,-1.9844254285968117,0
20000322,-0.5933405971555521,618983.422000001,11.113247708861358,6.960717557737225,1.2512174609184175,-6.578913143375714,-6.9721710832439925,-1.9367238235064526,0
20000323,-1.7643871116183707,690410.275,16.274136954948776,11.858815729323382,5.592392669982711,-2.484053004271707,-1.762298183843809,2.6503346825586567,1
20000324,0.4960674292017407,672742.483000001,15.024971225091688,10.560709061698192,4.10653310313407,-3.4448810637124487,-1.7805073975493382,0.7145768889528502,0
20000327,-0.6131726082385583,395490.893000001,14.516934674567514,10.000507741565508,3.272495938067471,-3.6402830211220567,-1.3271767179585088,0.5023654783522854,0
20000328,-1.130124255775544,661869.656,16.71813317732803,12.039824006532735,4.775443792391094,-1.645566341858774,1.406302369939729,1.9490910863696642,1
20000329,-2.2768418138058624,583496.644000001,16.419274501988397,11.695923105243505,4.110680740102935,-1.7518872258920353,1.9948761170460672,0.749656937171608,1
20000330,0.11782688055558578,791887.895,13.439601110006363,8.782777093504693,1.1536943327347984,-3.9131434846483515,-0.34983008592158504,-1.3325418849332713,1
20000331,0.470675174442559,1029424.175,8.545171742436079,4.058683758011573,-3.3787030852530355,-7.42335185527307,-4.487131752099685,-4.475848053775221,0
20000403,-1.552038424814098,792039.146,10.404542692630422,5.818063713434243,-1.836983883568191,-5.450276323023067,-2.383582650964947,-2.130667515407552,1
20000404,1.3003349735749523,1343068.128,8.50788198229223,3.9853658953072655,-3.641899872214812,-6.523674406823547,-3.595857370130131,-2.416078731597084,0
20000405,0.4647273094646031,667004.333000001,6.926725468515861,2.448874383310252,-5.1266550297750815,-7.159480605492558,-4.6497145968153974,-2.222664997839132,0
20000406,0.7202585602271946,692675.408000001,9.001009106289674,4.394962770419032,-3.3511718515167903,-4.64850179921504,-2.1897177078830334,0.451049041134332,0
20000407,-0.4735270905534915,504217.097000001,8.782805190497442,4.161877065962135,-3.6197543149298137,-4.070317057269339,-1.840607807478066,0.21583227533200078,0
20000410,-1.7865171472578496,1001487.588,10.26825458521998,5.516332172102042,-2.4497126895219363,-2.1542049433065613,-0.13824550615083256,1.609750862221504,1
20000411,0.481725012152282,840814.644999999,10.568671283076773,5.7346757597720535,-2.27783453691817,-1.2364614896509052,0.6554079817904992,1.5074063401415347,1
20000412,0.5919093616094124,1360132.896,6.0510232015061876,1.360011620306492,-6.235881048285724,-4.473859897093255,-2.5842891221640536,-2.4936172114616384,1
20000413,1.750356177129082,1078048.575,0.33018875405409687,-4.128799993656206,-11.219841246765345,-8.98815298038977,-6.724888521184291,-6.199781668045561,0
20000414,0.3388670849080187,779505.236,2.2272901138625953,-2.3620948342972077,-9.474696757058163,-6.950398263104194,-4.421865277437339,-3.249945452635393,0
20000417,-1.275260179136934,656131.599000001,7.447414638015373,2.5704735628537425,-4.841144844855633,-1.8577810132964692,0.7186439525700715,2.2098655623098664,0
20000418,-0.3392425669733681,716081.836,7.891857893793214,2.9698922221811164,-4.415196473243383,-1.2014081981723395,1.1930409737855532,3.136058468114898,0
20000419,0.9781741929767431,642114.931999999,11.890594819693465,6.721291237189502,-0.8427951209427729,2.418485483918557,4.488673617058967,5.883044389970148,1
20000420,1.1219391864380517,920864.093999999,12.516543773460468,7.264239711594763,-0.24224970354059824,3.1549970131155054,4.7648682947415955,4.062162860989499,1
20000424,0.0,961621.536,7.932089098828565,2.876201233965722,-4.170518887434149,-0.7538144259321158,0.5740536315845273,-1.3035652652626775,1
20000425,-0.8120294047161127,923416.578,5.387535042106334,0.431991840692899,-6.230533866140552,-2.7080093854325233,-1.3526392348977736,-3.255195706331826,1
20000426,0.0,546952.550000001,2.0600335274253356,-2.7344773689879434,-8.889513366428869,-5.181458416004641,-3.712959888565865,-5.252090065138224,0
20000427,0.23828787391800269,705662.176,4.712928225475797,-0.23913850621212338,-6.3172221175479795,-2.2295986788877076,-1.0883660101743609,-1.5121305152559912,0
20000428,-0.33579375327759253,487153.006,6.508902340688322,1.3932423974151056,-4.616084267033609,-0.2631794114164419,-0.018636412335582598,1.2435928521887196,1
20000501,-1.376528090261231,424786.579,4.629754674321472,-0.4189627273432549,-6.187394017311913,-1.8580358429295027,-2.0296031121504696,0.06954680971326431,1
20000502,-0.2390916184642094,901369.909999999,4.807589562165256,-0.24045785628402813,-5.911144557402824,-1.440006331346001,-1.6165203699949722,0.3603868785631282,0
20000503,-1.8388672444482663,768330.995,4.760658459983425,-0.2863545609294974,-5.796025136554377,-1.3186277640629416,-1.3737632354288731,-0.21332192950545495,1
20000504,0.2281048077033315,469636.149000001,8.183103602621374,2.9708657079569636,-2.6635870126591294,1.850589916332864,2.190753004097287,2.3940962458826225,1
20000505,-0.7109614085852359,671987.563000001,6.494510959713158,1.3518496017090076,-4.133811075286744,0.3716299270671154,1.134232113640813,0.7974296880077627,1
20000508,-0.5297483558353039,522895.565000001,3.185305098348602,-1.7892401370662392,-6.897860463077859,-2.4949942341246567,-1.5689480906872149,-2.064155977199454,1
20000509,0.23767017513114755,826468.604,3.1217621545842213,-1.8845492481079473,-6.710907637207962,-2.250350481364247,-1.4307032627624419,-1.8205863991325666,0
20000510,0.0,475073.436000001,1.7010993611820389,-3.257815053414902,-7.726693948111227,-3.2112826330645694,-2.768904555461012,-2.6016233810083382,1
20000511,0.5665916510650799,322612.262,3.171076688604882,-1.8915855520499552,-6.150515469569308,-1.6846165021531398,-1.2221055718957106,-0.26638305104257387,1
20000512,-0.12528504359490622,460681.729000001,0.946378269617737,-4.025258215962433,-7.865378940308504,-3.852810194500317,-2.8406706908115242,-1.377920858484228,1
20000515,-0.5617306083423005,466378.401000001,2.180394841205194,-2.866455881873584,-6.411340004563374,-2.6928843834544596,-1.4294794484826772,0.021621739083206172,1
20000516,0.21181902563248636,528292.501000001,-0.5341898649488207,-5.442276009974786,-8.60362340111012,-4.935158520493026,-3.560357844576148,-1.9402728525226514,0
20000517,-0.31806109953721434,284984.080000001,-0.3324719178554148,-5.23755718473518,-8.07859289769564,-4.373260603361896,-2.8835684334960745,-1.340097432716828,0
20000518,-0.5582597621257512,502957.228000001,1.4254403479612594,-3.5838334016879836,-6.09064368510803,-2.220195566300428,-0.5396690914585418,0.7486454983055371,0
20000519,-2.146472840547725,393220.867000001,1.6051577000454411,-3.4404541718043515,-5.5327568304237715,-1.5578422783221966,0.10621498258592917,0.8079152876024662,1
20000522,-0.23575991102578794,358291.438000001,2.1285177037474106,-2.9985832651252218,-4.642099051793763,-0.770543335499687,0.7419775008361572,1.3532673278096172,0
20000523,0.5626150587224299,554227.436000001,2.0713520436604465,-3.114448248388168,-4.316783005707718,-0.6496314041991045,0.8109107620184266,0.7873347709158613,0
20000524,0.10987346652162587,748514.006999999,3.301716945021961,-2.0132178606341866,-2.7775186220379946,0.5089151716256558,1.8937614451527505,1.2857673931900528,0
20000525,-2.7270497165285716,1364206.0,2.2027025185346645,-3.131416266899297,-3.4278728739642217,-0.4329208460532103,0.9127780200610506,0.05097034452680848,0
20000526,0.37134113305901273,467277.973000001,9.705895186915194,3.9248122062290087,3.818259558080636,6.784253144538939,7.507445858287065,5.837142898979383,1
20000530,0.7263138688279518,484068.265000001,10.147060900888185,4.314042460520634,4.273880364216425,6.997495570898009,7.200542675354188,4.711328495164784,0
20000531,-2.6598818729266993,768602.39,8.063519308344045,2.285810881098496,2.463851035056715,4.856010957384092,4.331171908411084,1.5613116497336024,0
20000601,0.0,1341118.742,12.849335012792293,6.672433010430133,7.0688850023712,9.170993689946494,7.664827115408446,4.227343162397023,1
20000602,-0.6224041413351027,1134988.741,12.322294287606095,6.019764642147692,6.5991211701679475,8.531631854571692,6.121260458676943,1.7666887377355185,0
20000605,0.12037451182282573,565020.99,11.912443302404183,5.519504573330867,6.3385795807605,7.937573357908559,4.743716360427112,1.0012397674160285,0
20000606,0.0,650321.685,13.926764609599948,7.29945511339823,8.337034238214283,9.423417580165042,5.5019779291861655,2.1468715676886276,0
20000607,0.7644350245722453,667561.365000001,15.223773092630832,8.396412392089768,9.65019428486438,10.167140758919443,5.458599041899854,2.0088497220517936,0
20000608,-0.2694017476893889,615241.866,15.49806659138351,8.506873477615686,10.041119541581525,9.843585220856557,4.577932077162132,1.8138888111170295,0
20000609,0.1252403048348993,644924.405,16.084181836398585,8.91399435166226,10.695227718184265,9.843308723613422,3.767698020576983,1.6666353565904557,1
20000612,0.125083649690728,730224.888,15.785487794962883,8.513862395476954,10.44951311189358,8.877796401343389,2.959979486281467,0.7050965333066409,0
20000613,0.5141974604564338,801283.430000001,14.008972252450032,6.754652593028772,8.713045140248289,6.658363877936677,1.0239866333322185,-0.8760469683004025,0
20000614,-1.0525452026346682,763355.643000001,16.57204648241605,9.095312938889276,11.117837721831393,8.228441759691473,2.5052785063010607,1.1115634793641282,0
20000615,-0.27035950338573495,522295.918000001,14.921098942856961,7.465731621471782,9.474306502955868,5.935855027503155,0.851725877889691,-0.23696948176943622,0
20000616,-1.3419989460741188,727825.997,17.707854941475194,9.97188892260034,11.973932900052683,7.703639237979678,2.797374766459601,1.891956629353437,0
20000619,-0.5362516396183291,1038145.484,18.348335305161925,10.506172680743822,12.471952881870314,7.474682364136753,2.7706656207402136,2.007214320619326,0
20000620,0.0,1310836.599,23.826549072055915,15.524132610607117,17.49945930285438,11.424863309740324,6.678805682541716,5.033839893005977,0
20000621,1.5936254980079678,1681719.894,27.013997874704508,18.374616218012406,20.341314152598954,13.121847968681294,8.439292352743665,5.98488755663704,0
20000622,0.0,1218340.565,30.337165071344735,21.365701170693534,23.266811372451308,14.82916414617656,10.038038643561165,6.1048998327580675,1
20000623,0.13999783544493447,1063330.933,27.6547237923005,18.815817311552802,20.441953266557956,11.25884587320595,6.811924603659512,2.2403843132600048,1
20000626,0.2776803968052935,1080570.783,26.702982634562193,17.850479519335238,19.11831614607373,9.688564079958077,5.093734488946588,0.055466659261864934,1
20000627,-0.1389116153088238,1889049.927,26.857636483273172,17.94682365884143,18.893365316659256,9.105012307081717,4.117737168083062,-0.31103668450353383,1
20000628,0.0,2022921.685,22.022356066781406,13.438815593058884,14.18805999188207,4.320780793473484,-0.3089159261607372,-3.329744018087473,1
20000629,0.0,1077872.185,20.32822138734836,11.858074754341686,12.446915936152013,2.5459346280504156,-2.1789876822973544,-3.146944427879476,0
20000630,0.0,1064830.003,20.65103884221907,12.182999251434753,12.667959743824289,2.451118689179059,-2.183847625384671,-1.797687765116861,1
20000703,0.4053519975408679,535938.177,22.310986052513346,13.751732035306155,14.12113944446505,3.3945020757400237,-1.1920726661014078,0.24327875719078218,1
20000705,-1.5020639919071943,992571.798999999,17.99435950986307,9.794018502504507,9.957884775408289,-0.44952601608771076,-4.233842940821337,-1.9068348316989912,0
20000706,-0.5553445668179081,1074124.821,20.273443069686238,11.982103713179704,11.864065508671628,1.254622319054953,-1.8576225789042369,0.28017083424946665,0
20000707,0.7065157975292488,1499426.129,23.15404640865854,14.748086804416753,14.18773231660652,3.347613971794051,1.0458688641084493,2.2150021865092295,0
20000710,0.0,1030949.608,24.048473475802034,15.609510319848107,14.697738214626629,3.7470405177672506,2.057387246742409,2.390744703948385,1
20000711,0.13785070079849723,711635.8,23.88027149695521,15.421805913105812,14.25308010159596,3.2366999920736093,2.128656059055254,1.9861528971047753,1
20000712,-0.28636468608755966,620638.463000001,18.461769654580827,10.347441522879475,8.993784434693657,-1.5219062386592188,-1.707828841014811,-2.588103328824526,1
20000713,-0.2896043076553089,690497.781,19.796585541830584,11.56320856186576,9.948185213144754,-0.5848537281126528,-0.4388824680834114,-1.425908729549006,1
20000714,0.1303589760302405,631282.614,16.766536850853015,8.740843096677462,6.923990940051166,-3.236927438934974,-2.699929932050394,-2.904267626977811,0
20000717,-0.26503932520988416,974282.646,18.571792527216218,10.388554276740807,8.386930910873893,-1.8198262667223444,-1.045215708880807,-0.5214648723504437,0
20000718,-0.13647033134997374,736820.957,21.93889882089632,13.475012282329812,11.203402205360565,0.8010126098585946,1.8046836617719233,2.6444538457339437,0
20000719,-0.7099304480899729,635074.476999999,22.466939681646444,13.980918689116354,11.334106513586125,1.2849089168499253,1.8720340931316364,2.430508137264657,0
20000720,-1.8976984611927046,951818.530999999,25.136424292225872,16.510190823342683,13.377250093058862,3.5850312186145548,3.717438177310475,3.8041058272406056,1
20000721,0.5935309397573159,1127493.49,26.60505284133364,17.903031704800227,14.249781162153527,4.962085898302682,4.680852578016587,3.3469024659288937,0
20000724,0.28093241468433133,829316.947,24.7653494448073,16.20950885990605,12.188681233012385,3.555761572659671,3.117752821614956,0.7917377776841273,0
20000725,0.44963327782306156,1046390.506,25.67340821315946,17.12018920738408,12.555298869716216,4.382259150338403,3.7630301527123384,0.9268327250823999,0
20000726,-0.44762062652779255,773849.423,24.894578111386608,16.4936419528817,11.454304953456615,3.8491670164621428,2.606816955262615,-0.08493857121189645,0
20000727,-0.14428557000014122,946998.448999999,27.50267830089311,18.95830868454849,13.247341538372742,5.821706321150833,4.128984085301622,1.6313647972066407,0
20000728,0.0,787191.502,27.847672510297905,19.324334213682047,13.006394302006722,5.814521767798091,3.4655667742648313,1.7110644973136708,0
20000731,0.7630320562016693,1271409.954,30.003612226223485,21.38766677489818,14.35751815337388,7.222644489048924,4.238406930751524,2.574532144754704,0
20000801,0.6141659758681121,1142185.279,29.61151515151516,21.087497467071973,13.46357188910381,6.61081330017501,3.285695864419279,1.6268214055448194,1
20000802,-0.14715349949416975,987774.877999999,29.236801250804735,20.799389312977105,12.590843373493971,5.817124988503637,2.4122137404580135,0.6183390048744588,1
20000803,0.0,932906.779999999,28.251595104810722,19.93673329847564,11.214904951863476,4.683977286438759,1.3754282559334052,-0.2684529402946281,0
20000804,0.0,796036.496,28.846311045709577,20.554982065667268,11.225450197737489,4.942297434010856,1.6588613997976638,0.034360342131892506,1
20000807,-0.618334278628538,1162273.349,29.64411118154489,21.349944579751405,11.358044462238205,5.368461244749921,1.8818047353729297,0.7073032395822754,1
20000808,0.3597900869670182,680684.178000001,23.9288988791155,15.974903399555068,6.1641338248808575,0.7064162565509432,-2.497099325482289,-2.868669521805619,1
20000809,-0.591855311760834,1172190.442,22.59526621187999,14.648879376091738,4.768955009858393,-0.5750380453310561,-3.3854545582348434,-2.8967170306014416,0
20000810,-1.7491368593106607,833333.253,20.635700953350586,12.813738221635843,2.8330822693414235,-2.2191632816314573,-4.404978339237657,-3.265009298025068,1
20000811,0.14543150680000924,672071.758,25.212749375436495,17.055803941049856,6.513034838765415,1.1217484898882153,-0.563943065724957,0.9872063471493099,1
20000814,-0.42321433555698745,460620.171,21.185080386300843,13.245628297094383,2.9160758645714,-2.2563813604264826,-3.080567728249637,-0.9447483741312366,1
20000815,-0.16502979996705294,630494.322,21.515050647680653,13.569580558017952,3.0190502552530623,-1.9758727133211744,-2.1788838940025217,-0.27343791060360767,1
20000816,0.0,658707.485,18.889876160034085,11.139204087027883,0.7019703841545111,-3.951033945265977,-3.4796043438404505,-1.8174639415236418,0
20000817,0.2986193966251861,926585.956000001,17.8783057780808,10.207165501960123,-0.2147128004090873,-4.488051815237791,-3.4893812851542574,-2.2037838759161423,0
20000818,-1.0246390593930965,502791.31,19.410479813261876,11.663363015475056,1.0027077029480125,-2.9682545171609007,-1.4960145240770928,-0.004703034494677104,1
20000821,-0.5807236975960725,741120.171,18.905635847618672,11.218861105651017,0.5184855663952402,-3.1486673356714068,-1.0729939341271655,-0.0511064441708784,1
20000822,-0.5875457057526388,514522.468,20.11538958048401,12.349833924135446,1.4678594356211485,-1.9344000334942795,0.25609177436013003,1.2076785664443084,0
20000823,-0.886169317556115,565306.549,19.038412790758088,11.293017650664375,0.4639524051930195,-2.5749469302665497,-0.3451870167018256,0.2798064902639238,0
20000824,-1.3231227099799336,582828.473,20.46610945769516,12.5795558238457,1.5934959920261695,-1.1271110300001257,0.8627672567489841,1.0400376230117963,1
20000825,-0.592347003421049,302922.242,20.62992390646337,12.663030930157285,1.6224535766073993,-0.7034428629753173,1.372393743576747,0.9718292013346242,1
20000828,1.6163984263855236,337520.863,19.04346744767663,11.104083258258541,0.2540253434020641,-1.5799798950227852,0.21558935757988382,-0.38408158864102787,0
20000829,-0.44460499624864575,560851.779,18.701102134103976,10.734435351654788,-0.047843665768186966,-1.4323748853752771,0.16120404590545914,-0.43529607913969665,0
20000830,-0.14283441460871418,546745.058999999,20.631803638034967,12.475490109423927,1.6381339602962885,0.5226360727607028,1.6522476975021672,0.9236861178383922,0
20000831,0.0,643115.909,22.613924346818163,14.279556073925303,3.4062074774833055,2.4278062161169824,2.94056027128015,2.244828901992123,0
20000901,0.295667682681694,819672.001000001,24.264712116892916,15.768100051897175,4.93023119823987,4.023839805860704,3.943088539496674,3.0373732722262554,0
20000905,0.0,1180951.476,24.434015047077143,15.826511307306488,5.16609714604171,4.411939401050073,3.6441131610594666,2.286173114715625,1
20000906,0.4660620128485913,775570.063,23.452448192051122,14.737580485885148,4.421481851275586,3.6367048431823554,2.564324938872635,0.6772657209385435,0
20000907,-1.8016571964630264,1295289.988,20.6389961940839,11.98812211747334,2.1651774726862314,1.3715922426369669,0.09609313972026763,-1.6285896708792218,0
20000908,0.14871171591289362,795319.545,23.973362243380507,14.987273214633259,4.982312485541937,4.052926683288124,2.579175219120302,0.865538905555211,0
20000911,-0.45530811184139486,785519.268,26.516339292752267,17.226115091981274,7.051532770548002,6.153847597527125,4.19611655587377,2.5682680649968277,1
20000912,-0.30138457865839097,714985.612000001,25.505097054786358,16.22727306636432,6.137212043447159,5.142057322750053,2.8185799116734414,1.577643829076151,0
20000913,0.0,1240942.374,24.703533351152306,15.425917676407739,5.434916250890988,4.344967628890484,1.6424997030173472,0.7199602043240725,0
20000914,0.15152195384754097,853379.682,25.474606042920012,16.01599398401728,5.965557750441503,4.711603214510189,1.8544790637813897,0.5291670407949587,0
20000915,0.15331079209310297,834669.191000001,27.040699461514844,17.31442753218959,7.203740176155645,5.644000197330728,2.7702577063339504,1.298208464729025,0
20000918,0.0,1013008.213,30.133765217188134,19.948769773582264,9.735744717308853,7.784132065331669,4.810111300636341,3.2049754266264676,0
20000919,-0.3447338457719955,970836.574000002,31.389078437784416,20.92710159601923,10.730339336298698,8.329971357542192,5.288020203373263,3.284781675130698,0
20000920,0.0,1098836.189,33.976011016089295,23.155038572417947,12.825747692902368,9.939222270538412,6.551150730379603,3.8612681386996486,0
20000921,0.6898190249137803,855309.956000001,36.018230638778995,24.816657245147983,14.303004235587155,10.935106217383124,6.9185079591351935,3.768115942028997,1
20000922,0.3531455816396718,627524.41,33.909606448745414,22.66301264697566,12.328215281425518,8.6689967271405,4.459452907188174,1.0608105377995125,0
20000925,0.9966086511389888,479181.433,32.286568978756094,20.967990145892017,10.724804837471199,6.875919823393923,2.736354619912976,-0.5116617609418945,0
20000926,-0.16368207498506734,921537.067000001,34.100108038292696,22.438615160290688,11.999358268787907,7.704023817163478,3.4493052650390577,0.42143057321218,1
20000927,-0.16617566203563763,1051318.842,35.20220500742665,23.23800457906271,12.738812890307635,7.898513856178058,3.4538688155983572,1.0665605330751127,1
20000928,0.3459263710544711,816256.826,30.024572632677625,18.29964339932951,8.322363843380336,3.371912360048073,-0.886638939844395,-1.922243658675436,1
20000929,-0.7985093471889576,871347.337,25.596442864685777,14.092083011302345,4.654402705825627,-0.27186431080263257,-4.161354749351451,-4.019635601196795,1
20001002,-0.15164425159433573,705630.673,22.987506240311088,11.539350557217551,2.560498173887884,-2.2978608401241893,-5.616880557630463,-4.610811033996081,1
20001003,-0.48118672676488433,945592.745000001,22.943122225187878,11.337319414004817,2.5752361762195757,-2.2760696066674537,-5.015281437846085,-2.9772676864316576,1
20001004,-1.7143805799454015,1293656.909,20.433896554268426,8.88747509776432,0.5814063307016432,-4.159189847266307,-5.94794510440494,-2.7678004869770456,1
20001005,1.5080239002112026,618317.903,17.66593136812466,6.2291315414192,-1.617170604906434,-6.270122930844649,-6.773363178511473,-3.1117930573857837,0
20001006,-0.4696352707471086,531747.133999999,19.474898931111632,7.652822401492242,0.025299351176259748,-4.671126794179303,-4.270523134769517,-0.6527893544442717,1
20001009,0.6188978983948318,645194.999,19.44996782319307,7.42534429183444,0.14380642432929228,-4.42796991928218,-3.3234412635372363,-0.09906779193558496,0
20001010,-0.1469994287398502,750029.587,17.982141752567973,5.944838828225342,-0.8837431003053284,-5.312519330061023,-3.3007193511649047,-0.5097678209517861,0
20001011,-1.236326783897998,1008702.55,18.838495404624435,6.556347052754104,0.029918594105096338,-4.391695644031889,-1.3649532384271055,0.49453071355920186,0
20001012,-0.4785100715333286,1022659.979,20.826542905031303,8.194120199934146,1.8862575199783935,-2.584964532638957,1.0356244949268114,1.6680135284786464,0
20001013,-0.49769234059264317,783885.785000001,25.274218759113044,12.013554339838342,5.761029912087273,1.1179414200562126,4.841457771971376,4.482730464603586,1
20001016,0.0,1590044.008,25.601491948246846,12.154774976847076,6.165622667609683,1.6066188107398578,4.955315798317374,3.7526914074253623,0
20001017,1.1414135968391563,675487.2,23.48588636696215,10.113255647378667,4.546276542487183,0.2439174670168446,3.187370512711899,1.078951624704447,0
20001018,-0.15930832651519125,594415.336,25.860333800113285,12.132406853798223,6.5719758952733995,2.5097551765372277,4.738852350682868,1.8223299137768167,1
20001019,0.18376113393494764,804826.443000001,24.592711588655945,10.89364873142391,5.48403306920102,1.9128519649956364,3.079423044660579,0.13670892002292165,0
20001020,-0.3120239128338627,903124.42,22.90871661363417,9.291173464468226,4.050625783434544,0.9750650853341193,1.3971651721145757,-0.8469771478160384,0
20001023,-0.15971914732113912,850261.613,25.666596163577708,11.717826870769791,6.458449301031001,3.5596416598140364,3.1842621291669335,1.4004680877980928,1
20001024,0.0,1299299.188,24.904045796413982,11.023654651543003,5.833022744554162,3.3525464996710164,2.000717046399201,0.5892387882703717,1
20001025,-2.248811272138044,757751.166,20.033430480765944,6.673584626418765,1.7720298880147756,-0.07538413081508727,-2.0879108368720187,-2.4073589180204698,1
20001026,0.4751096633071935,1047309.358,23.697315552001392,9.912406555886138,4.846871214704854,3.2642621100043603,0.6652711300318919,0.7180741594439811,1
20001027,-0.6370920756944147,650837.516,19.099248655069882,5.854698364897878,0.9673055242389894,-0.2843836777312862,-2.5786339595802272,-2.415577733556306,1
20001030,-0.3254308980626764,1413637.717,16.930082623702848,3.9862045597560116,-0.7805575517469004,-1.818912971437289,-3.6456452207456573,-2.7931205248597117,1
20001031,0.0,1286231.876,6.239477483951017,-5.424761213961792,-9.647125416053761,-10.134679392883536,-11.091060691310155,-8.719469620450512,1
20001101,0.0,1070919.5,4.11519816606557,-7.226337188410821,-11.21438267743782,-11.295049840961413,-11.183007492780048,-7.931833002834752,1
20001102,0.7262812713797951,1221786.79,5.29569252857099,-6.1192685285979955,-10.012092330402393,-9.814857254555708,-8.672101699599297,-3.935399724316436,1
20001103,-0.4226087416238115,585649.657,3.105895045003385,-8.004777890855276,-11.657373019124798,-11.08037826621377,-9.027669473044238,-3.284519104954991,1
20001106,-0.5499802294688706,405381.083,1.841211590433028,-9.066147948929974,-12.486348529954816,-11.501972151327891,-8.294473074497311,-1.9014349157383081,1
20001107,0.0,341826.968,2.571319351989795,-8.331149572255258,-11.643152788579417,-10.284081172640166,-5.885510723277496,-0.5193572624336046,1
20001108,0.200504049459864,595632.228999999,2.0298229263746776,-8.736922935563067,-11.90379087197932,-10.129425199847729,-4.928330467427112,-0.6631400706194369,1
20001109,-0.41608742351571726,788730.578999999,0.17714357596500446,-10.254226190284216,-13.234141102018837,-10.976144321051763,-4.78145733813716,-1.5021078537307617,0
20001110,-0.8417200962711209,471560.582999999,1.1633576185289562,-9.202159577868084,-12.084811208150423,-9.18361955947482,-2.3468369456746565,-0.1506682233542117,0
20001113,0.428813902737957,588714.655,2.9172316093309467,-7.455456166981679,-10.2756698764046,-6.753171263157556,0.5395548440027389,1.3682850433298057,1
20001114,-0.5626833937194131,478036.506999999,2.518367522669644,-7.674713359342411,-10.344631159213897,-6.325932451497951,0.47445569737634524,0.9720943479959905,1
20001115,0.4228032081953657,526752.802,1.2751790609249503,-8.645382406015544,-11.139564358770302,-6.530999564424274,-0.4865675650006695,-0.11121918629213845,0
20001116,-0.2639512466520829,1014355.394,-0.05656190562448443,-9.698888558231051,-12.046974264753478,-6.826859627104175,-1.3092758161139748,-1.397777116462022,0
20001117,-0.1369185586882767,811249.106,3.8368532952966556,-6.089484856538326,-8.360987293823197,-2.460833554802748,2.457368539681141,1.915648748389453,0
20001120,-1.7317547269835625,2050640.493,4.787895727704003,-5.161335925075154,-7.240855274783558,-0.7679394293637087,3.0990117851753984,2.4890236111299915,0
20001121,0.14338328319603194,995516.514,8.260293373443156,-1.9793886530406293,-3.9579409035958744,3.1603538193370597,5.955115409485788,4.7659478759594,0
20001122,-0.2876592084436497,586948.562,8.497121645297865,-1.7178789363660252,-3.5582104495027975,3.8366723187940885,5.5424103444507695,3.563942482259265,1
20001124,0.4585135778265572,246230.105,9.213132453953317,-1.0707836995049287,-2.735120506318357,5.083640548085342,5.321101569103785,2.379440407441344,0
20001127,-0.45510788982934725,794765.175999999,8.316945101509168,-1.8637813790016242,-3.3154909419076786,4.644056981904973,3.729240770052399,0.6609816370488014,0
20001128,-0.6021917225236678,670987.612999999,8.902885058694203,-1.310533035429321,-2.5542646380821044,5.512253076568411,3.677128772564438,0.3952193495762023,1
20001129,0.46275552815425103,806245.036,9.976265408755452,-0.29327803685557985,-1.329846835447616,6.355002670432744,3.9647502876539793,1.07147081700904,1
20001130,0.4582047735574737,845836.054,8.699350994786705,-1.379288576798964,-2.1374259673015077,4.898021066070866,2.033762456998987,-0.12043834450472347,1
20001201,0.0,867618.460999999,8.426936588544436,-1.5952021758069221,-2.007868884969826,4.492559618667187,0.9383167243907177,-0.20695663259887276,1
20001204,0.0,952099.098999999,4.700922775720319,-4.915293570005705,-4.983652904895262,0.8138977690459295,-2.6163224512427994,-2.9674632566863766,1
20001205,-0.5602878276727391,1421451.751,0.8173705715331565,-8.399931406787447,-8.103087683890847,-2.9138264789586974,-5.877251127006256,-5.108677371165121,0
20001206,-1.0988264520553281,633015.566,-1.1739716899348938,-10.127718762534457,-9.453006327066676,-4.678018295444245,-6.8812995717261645,-4.971405281612689,0
20001207,0.13573906083243567,1567010.942,1.805216115261484,-7.315328175026707,-6.267789487726811,-1.8004935965848363,-3.4512740128068287,-0.8294423692636055,0
20001208,1.801996089841728,834649.876999999,7.830295241698011,-1.7794119206796501,-0.42713352872341787,3.6165428685571843,2.392691610129634,5.159924059493795,1
20001211,-0.572342934141817,586948.393,2.69869125821124,-6.369978103419256,-4.8830722587165445,-1.4339565437089208,-1.9912750547414537,0.5172982988040938,0
20001212,-1.161093622359172,787258.824,4.146201408898435,-4.960501625257653,-3.3124767148946104,-0.13685660476673067,-0.19489419589909185,1.2588483400497146,0
20001213,1.0369091091945037,1425867.392,5.601249492816236,-3.5598164774914434,-1.7451700496259863,1.0862056409242695,1.5881008610853933,1.2958936318521965,0
20001214,0.31459425179652456,1596447.316,8.420084865629452,-0.9272122246409661,1.0111408406043858,3.412065028021325,4.321057150695267,2.701520241984603,0
20001215,0.9035080045490286,1108991.267,6.439958008923148,-2.685934738867986,-0.728594173738074,1.1590587000262371,2.5796518239873953,1.074621642900878,0
20001218,0.603774657091517,875860.715,7.956391487487684,-1.214435896889495,0.8223126700336033,2.3939842734460006,3.73807545052245,1.5010548298421122,1
20001219,0.14198054134006283,714994.11,5.9824233671366,-2.93382381156707,-0.8676511115995041,0.4406280633086704,1.3152212210326613,-0.7160424057852679,1
20001220,1.5839657257928332,1068663.914,2.6280147043917523,-5.901911030321062,-3.8421643026563803,-2.5250197657839024,-2.316144421994422,-3.3239628876289826,0
20001221,0.14149127643858425,980504.687,5.3085949014589895,-3.360185464545684,-1.1937077997066168,0.12838252582735385,-0.13674022132287203,-0.2403964530079074,1
20001222,0.0,757823.193,3.0147857123470243,-5.376577640257302,-3.148501750671767,-1.8177469261460892,-1.8973074939608605,-1.7935564422006993,1
20001226,-0.42046364992411817,588420.417,-1.1127272490408309,-9.057278808762302,-6.702965718045071,-5.369639984106419,-5.494688023136926,-4.067326294122621,1
20001227,0.0,934143.150999999,-0.8237108822539825,-8.682844535029174,-6.10561178995226,-4.70167462005038,-4.778236145270926,-2.5167968277920965,1
20001228,-0.5348805727220302,946506.445999999,-4.388208701017787,-11.83300329617396,-9.134721273387235,-7.53794377929802,-7.298365135483147,-4.6758447429645456,0
20001229,0.1264281409782527,600783.64,-5.674562471654596,-12.880933890818271,-9.922484328501922,-8.147004553898155,-7.249986021458621,-3.8582016761824276,0
20010102,0.7977735960422316,1582612.383,-3.6942677079399426,-10.90531119199559,-7.606882304594636,-5.6467868510156185,-4.318608053261068,-0.4914843856603913,0
20010103,0.28714630494028087,1211280.868,-1.4598271275299712,-8.739356259562069,-5.1094176841845345,-3.163741607304682,-1.2049750371113752,1.9113419542190022,1
20010104,3.6989553503264694,2219160.243,-2.3233662651921585,-9.393236674515753,-5.528235820885911,-3.853156336671612,-1.2606663466896955,1.3394579933577822,1
20010105,0.3892798774567483,1583936.643,-8.58872626176733,-15.049255513541887,-11.097769254428028,-9.659990712765126,-6.496662023049231,-4.294260609459705,0
20010108,-0.5212565348705342,920455.662999999,-7.052714366749931,-13.490956199119994,-9.213687583362734,-7.732518742238661,-3.7605899397488747,-2.4210219694298507,0
20010109,-1.9152025071300895,1242482.618,-8.129925531689137,-14.371132239595779,-9.806740033763818,-8.082751660155372,-3.8034606396939905,-2.6481864829559347,0
20010110,-2.1388926492486724,1422629.11,-4.600057927030796,-10.979394977348642,-5.979064415487937,-4.19675041949873,0.2546270789979899,1.7369923907807945,0
20010111,0.952726901948787,1247780.377,-3.46628812500794,-9.82151505882053,-4.550650658305633,-2.6963923832830012,1.7147491046278773,3.186951146458661,0
20010112,0.5564234320092433,639491.389,-0.8194161975220813,-7.26293054040863,-1.8282390623004456,0.28821685776323347,4.14114618641986,4.334731760675698,1
20010116,-0.9597319844971461,654061.833,-0.5851031334165219,-6.935364251461601,-1.5178742691979488,0.9696183406687044,3.869638047690978,3.213492741246778,1
20010117,0.0,917239.502000001,-2.967930580951431,-9.032117537612653,-3.7183010938953855,-0.9688352099573374,1.3382735059185782,-0.361851602348186,0
20010118,0.5564234320092433,803026.003999999,-1.0042034695407887,-7.0624543546110194,-1.6866540251455207,1.4920597492000591,3.3756791542625764,0.9168050356484343,0
20010119,-0.6891228483308287,815516.721,-1.2109085497676007,-7.115737969785867,-1.8195459704138934,1.6688416391115506,3.0844052840383043,0.2532779941848082,0
20010122,0.0,985802.535,1.0757683856532363,-4.837704489730292,0.5163792756942943,4.1650253895520715,4.463134906279718,2.2168629500113934,1
20010123,0.29402569066102574,498347.078,0.28682804818830493,-5.461856486193422,-0.21483831913098844,3.639881724507231,2.8838798086837327,1.2476800574747018,1
20010124,-0.6959284716327374,685264.02,-0.48864120543924444,-6.0539930836534355,-0.9572963492656411,3.051020441866684,1.270209835480792,-0.049411912366515265,1
20010125,-0.13326408826786354,1006996.739,-1.65612149242712,-7.004033851691433,-2.0596552771599317,1.8928563262879652,-0.22880268095991133,-1.1054386772886051,1
20010126,0.6747015743036716,963726.313999999,-3.5902261179349955,-8.661963618655834,-3.864739314021373,0.03687471567062546,-2.194317897852854,-2.590520859363482,0
20010129,-0.39884683368445506,581061.551,-1.94344397555389,-6.911947142195578,-2.1085593900220396,1.6530293444301472,-0.39662920615456887,-0.314642211887787,1
20010130,0.6606822727729449,1937901.52,-2.6399832722250642,-7.3553452697029345,-2.670621683216173,0.8302617118738129,-0.8591787181207818,-0.4009479072451487,1
20010131,1.3101489141542304,2339553.43,-3.5865318491191545,-8.065153959368338,-3.50731716722476,-0.11342091225181822,-1.7422698964606222,-0.7290816424903361,1
20010201,1.582844013275473,1373618.789,-4.318711705386742,-8.572064079652774,-4.073978810314004,-0.7185984171559469,-2.1681133520551255,-0.9581950472300279,1
20010202,0.12861209268897258,1843855.468,-5.540660965284179,-9.528081883032351,-5.100326889068932,-1.8236122975856572,-3.000570558548446,-1.8461509363779958,1
20010205,-0.3566003482642497,1560241.548,-7.505370617366275,-11.215855902584805,-6.808479369666452,-3.9616291850369754,-4.212330035937911,-2.7984636854260216,1
20010206,-0.1421035504989914,1328288.033,-10.565761701898978,-13.955509050145235,-9.583379855329031,-7.005107965859312,-6.354984222326373,-4.430108040493532,0
20010207,-0.3223235737626307,917217.811999999,-11.269165365620989,-14.405535196371497,-9.94327342104406,-7.603725681308471,-6.040693351187511,-3.599121905264106,1
20010208,0.9810912044767264,1506226.595,-9.930442107796686,-12.868528964905163,-8.251004106683501,-5.94644764354587,-3.7918979496667964,-0.956661702543754,1
20010209,0.6643336958228646,1342121.6,-11.339337621969827,-13.945102094636436,-9.307451382448185,-7.016350550105015,-4.49370483079045,-1.2522779060154345,1
20010212,-0.06043567008049852,1185082.429,-11.391799412825982,-13.714385170745578,-8.97870235136231,-6.5580256496093785,-3.5970777575996227,-0.4629846333421293,1
20010213,0.11958805294783398,789172.228,-12.138228510144424,-14.150487020141925,-9.38082183730733,-6.795892282603884,-3.449924339253965,-0.9623459238691284,1
20010214,0.41845789322433957,705721.766999999,-12.342340783662832,-14.037294656524365,-9.217363510002507,-6.552106365134555,-2.7674816869688468,-0.9563243737793847,1
20010215,0.07823350503682591,1566783.163,-12.43978510691912,-13.830974607806917,-9.001840098919939,-6.100001172037512,-2.0267165954653903,-0.5136454469272107,0
20010216,-0.27449880354014816,697061.871,-14.47973746579499,-15.53909962102563,-10.841838311903878,-7.646981371864299,-3.372356625181752,-2.1337058197181227,0
20010220,0.0,812800.801,-12.096069926818725,-12.896825280057431,-8.162823202615323,-4.451537630833232,-0.1953560635709005,0.7435830285339449,0
20010221,-0.3805126106905985,1208328.256,-12.711514744133048,-13.20196978110296,-8.54049741356634,-4.495236286056629,-0.6641727796124767,0.16512259987725333,1
20010222,0.506100983839047,1008083.031,-11.796624516205299,-12.000449079682122,-7.212066061984808,-2.9237155434750486,0.4489319585192169,1.1097586196708653,0
20010223,1.682544044010399,842137.058000001,-12.766577706583751,-12.69845162685876,-7.932353310864315,-3.428753496774332,-0.33320569071705153,0.08424412673449092,1
20010226,1.7618736570183808,793097.48,-11.842179154856328,-11.513606417346235,-6.636473533471462,-1.9661250897783933,0.8019613812427371,0.5467985682744372,1
20010227,0.23486989293704594,629194.483,-14.797420431394869,-14.21866044156683,-9.391624116737754,-4.6095930921964134,-2.1976907317825716,-2.2201205208282766,0
20010228,0.25588815591084973,1166148.449,-14.396628077622275,-13.558114756216986,-8.54008770846554,-3.5509004908112765,-1.471313817673205,-1.3734100327685985,1
20010301,0.19593450189509093,1030705.802,-14.891327756150085,-13.822779242367556,-8.673574833555621,-3.523293641839704,-1.7510717845748405,-1.248382683502928,1
20010302,-0.07827475581989976,809444.210000001,-14.914937623018504,-13.584041091390073,-8.264534393756302,-2.980497016132011,-1.48164971189748,-0.7750914871917811,1
20010305,0.9372793220774189,1041359.807,-16.894101113402996,-15.326230702457094,-9.970017109953075,-4.63428521984755,-3.4939473192081154,-1.9392024473094651,1
20010306,0.05632431870813509,658238.684,-18.59770218653194,-16.806618927705298,-11.426787955345212,-6.009463032381002,-4.75639732158726,-3.079791873439813,1
20010307,0.09347403635647623,1490451.331,-18.633788130983927,-16.582343246500887,-11.036446674702153,-5.622504284226643,-4.1443709224684895,-2.1500121625573776,1
20010308,0.2005959348728368,2179631.318,-20.788304778120697,-18.51337128870918,-12.972251782483774,-7.624215175055861,-5.700037245929554,-3.3832074066191242,1
20010309,-0.16248943291978465,1089524.074,-21.572968816250015,-19.014097340914425,-13.4688728711119,-7.934409046737423,-5.662295867712006,-2.796872407608835,0
20010312,-0.34494086727990037,1112875.629,-21.0842257110763,-18.206961871052552,-12.572766097240489,-6.85339483277521,-4.060711712093586,-1.1980734178288437,0
20010313,0.05473819123654484,1331511.365,-20.453265600384537,-17.25693572935305,-11.581340952177529,-5.627219566900731,-2.6510640570345174,0.04752877092734813,0
20010314,-0.8156972592350628,1493078.059,-17.514218652258908,-13.931990168453817,-8.127079377556838,-1.882981903533452,1.2743920329046967,3.4553788411396993,0
20010315,-0.27369424442979506,882127.756,-14.934303392495844,-10.987305610018552,-5.069114218116341,1.3016601453804557,4.431221121547081,5.2173143716590875,0
20010316,-1.6749108478085812,1164543.339,-14.278498504543919,-10.049200506154408,-4.110623490164508,2.172322558380315,5.166427010238101,4.18514897043597,1
20010319,-0.699980442581449,1708501.596,-12.975788207752354,-8.438211693001096,-2.4845569368995597,3.6059939109290804,6.286017029549212,3.711998038420103,1
20010320,-0.9782444154382711,1250361.935,-14.823416172308127,-10.13396378924761,-4.477943087596398,1.522705267096423,3.552098298568771,0.08625687984302582,0
20010321,-0.8506348711194277,981958.147,-13.84379368710505,-8.881488798770741,-3.284548195903083,2.7261764468013814,4.152080228299424,0.34435548161241825,0
20010322,-0.04069991889943777,1257659.243,-10.723649046993499,-5.356600120304233,0.23096605447206373,6.368789147486324,6.662008122027927,2.9937184463404503,0
20010323,-1.6969299250280072,2283693.646,-7.655913562438537,-1.9231955029190746,3.7080611910083183,9.728450971045085,8.572560624539543,5.005169414401307,1
20010326,0.0,1832997.349,-5.3570821197180445,0.6768039241815323,6.3094671514782386,12.104488314391418,9.310983774042299,5.891348905683856,1
20010327,1.997311010752822,1684565.721,-6.515836203573487,-0.47995637444024464,5.094512644204086,10.24827707244915,6.235979177570434,2.649939356711022,0
20010328,-0.489821052042328,891322.374,-7.23033873846986,-1.178226443494933,4.394469220578082,8.987967506981894,4.184999968900245,0.3281645549936821,0
20010329,0.2560213288815116,1293709.796,-7.097109014629428,-0.9549533274986665,4.608377690637789,8.698168918014026,3.4271040000996886,-0.3373127727234498,0
20010330,0.6692567280152075,982541.754,-6.013194503524384,0.246147204970837,5.903720298581771,9.450525732038935,3.676500707382942,0.4662110427360049,1
20010402,2.1474703982777186,1834165.347,-5.572995947571775,0.7556132463749443,6.47300702843032,9.301367694548222,3.325175710757943,0.9889824605837949,0
20010403,-0.0843681778013163,1187456.598,-8.144794575803651,-1.9420599999384738,3.714361372922722,5.672897800577015,-0.2891611524569954,-1.4304409007072725,1
20010404,1.2216710498665855,2110449.88,-5.013867574296917,1.4248976368926878,7.329548710829775,8.444637956176477,2.081170919325769,1.4486210431803421,1
20010405,0.37592953379249916,788135.296,-8.994476915243657,-2.8214990228271493,2.9318296151981613,3.1157027565117077,-2.4357977602770715,-2.4315597874305954,0
20010406,-0.18295870360689584,749458.226,-11.275358789146079,-5.243611295917909,0.45311980230956,-0.18811184241791257,-4.552196692486822,-3.8053034263175354,0
20010409,0.8337463550202672,1176510.414,-9.095359359274221,-2.9085250716834006,2.9407286006622275,1.4439136820148433,-1.8686013311967853,-0.7290263533175136,1
20010410,1.7353709973559455,966925.383999999,-9.797271222568348,-3.641402888868167,2.219695073970337,-0.061036459071361654,-2.319837678293096,-1.152773548556315,1
20010411,-0.19865516821981669,1187603.041,-13.276064079323152,-7.3303380612877795,-1.6029966234413133,-4.238261680402625,-5.488211003063814,-3.2461876161959067,0
20010412,0.04000654121549815,1060333.758,-12.466597458270606,-6.454284496151217,-0.5934809779117226,-3.5494854633166053,-4.069658104682815,-1.588697714078785,1
20010416,-0.5575943537397291,1004288.482,-12.835381817019629,-6.783622009722352,-0.9092943046342357,-4.081320443867187,-3.7687160220480957,-1.6444820241924587,1
20010417,-0.3187498728777961,688158.902,-12.773905514053235,-6.63866200600312,-0.7528308301153326,-4.0584239169913925,-2.9465040664580426,-0.7565151950999067,1
20010418,-0.21931996248550564,1072538.078,-12.502547082432901,-6.2436577793053365,-0.4016730064601905,-3.9272253840283913,-2.173073450342822,0.1598443498167882,1
20010419,1.3644343977697864,2330205.067,-15.662781370772812,-9.516462959742922,-3.974461377952544,-7.345284638123409,-4.609881141357105,-2.924629373061325,1
20010420,1.0438130054281773,1559339.991,-16.643326963553818,-10.429414534175292,-5.046704331450087,-8.132782208928772,-4.888002658690601,-3.108120084191859,0
20010423,-0.30289057560254706,1369749.379,-16.810208820549104,-10.483948456141661,-5.169792670434621,-7.870930511876792,-4.472316022276408,-2.406502897754417,1
20010424,0.09462596458996371,1058144.327,-16.541591154962518,-10.077366409996086,-4.839470647966495,-7.038912852806796,-3.3725302484899995,-1.2474579647670423,1
20010425,-1.3031911227514046,1024721.6,-16.74114963126339,-10.169268729753986,-5.042233096698601,-6.770955958370671,-2.863684609552694,-0.5327451926390597,1
20010426,0.018862354021767093,827980.077000001,-17.339462231553203,-10.6971690066921,-5.703259633468921,-6.95169323798277,-3.122320998994008,-0.8653173249354945,1
20010427,-1.5639685702470012,1473812.907,-18.70660014071424,-12.032949681244789,-7.2004694054019005,-7.906285413522507,-4.029555353853252,-2.0092592095298865,0
20010430,-0.05567535564330405,1380550.018,-17.690260343394765,-10.827792051188789,-6.00075501213992,-6.170445348527718,-2.2869263401465387,-0.5693551979055017,0
20010501,-0.07545865140299148,1306845.117,-16.76022670522837,-9.737889572437632,-4.946152706358848,-4.533843891141973,-0.720149929480483,0.6241390853862677,1
20010502,-0.05636761584232028,1293563.737,-16.502630030466044,-9.400801245036972,-4.617965046578912,-3.800882084446957,0.045231574663716204,0.8854940002859659,1
20010503,0.055626063240897916,1010126.487,-17.896820403424012,-10.836364863770202,-6.177625361164382,-4.7678016903842435,-1.3783112359247336,-0.680798207004577,1
20010504,-1.0174709043285795,1240144.972,-17.790303243053533,-10.600151216482649,-6.005562606324095,-4.196108875867466,-1.1285340102071466,-0.791834309939776,1
20010507,-0.1629319283099477,1177532.277,-19.350361835840822,-12.216011764954885,-7.740054804375893,-5.610637656319438,-2.732759897585649,-2.3014663873547896,1
20010508,1.0682785583710326,689540.002000001,-18.502828816567295,-11.210349198724415,-6.71933069132539,-4.153383237927484,-1.5066383785009756,-0.8776803704148436,1
20010509,-0.8926262684897299,936476.474000001,-19.298652485263666,-11.973669767859171,-7.619402945693081,-4.611418650427188,-2.1894014153258268,-1.1888842567428566,1
20010510,-0.09102891615080447,819453.183000001,-19.404520927442633,-11.968010965564302,-7.720115022665159,-4.431253436604669,-2.097769265375593,-0.9621177640562165,1
20010511,-0.6635157244137374,698084.726000001,-20.313069052380122,-12.846583738021703,-8.729846521411686,-5.111499207936205,-3.032227906614362,-1.4750564832368085,1
20010514,0.6506133195150059,954580.166,-19.55665386900325,-11.906263003760834,-7.852892298109654,-3.877678938291165,-1.9151219180269023,-0.498611623628306,1
20010515,0.17775879854602775,1186165.204,-20.783286042461476,-13.14572620000056,-9.267335341587572,-4.943302403473885,-2.962629492525622,-1.4741375096789764,1
20010516,0.05289342358432909,1546504.154,-21.160695075801154,-13.48434278004772,-9.744793064062367,-4.967152417382778,-2.906250878362987,-1.503144220179731,1
20010517,-0.16894911203773566,2137413.205,-24.285113869252985,-16.803061651734716,-13.305340016209335,-8.300702485510778,-6.0283002005352415,-4.229849145582714,0
20010518,0.10154101987406923,1032354.679,-23.990327849954777,-16.38517648270742,-13.00245022895784,-7.5735865808881915,-4.9522830787040935,-2.9568548772800702,1
20010521,0.03413279375688998,626973.125,-23.73578393695994,-16.039770843718504,-12.763916480245948,-6.910540157600176,-4.123241485832429,-1.6072371345151253,0
20010522,-0.2859112019229683,911855.607000001,-24.195292693678063,-16.477315844205243,-13.321333505432085,-7.078688899875066,-4.039043683042827,-1.3520141640506866,0
20010523,0.0,915766.018000001,-23.422549905246317,-15.59173188142537,-12.469541352866674,-5.790518248676895,-2.57803678210578,0.22024095912335606,0
20010524,-2.837338699835375,2336412.224,-22.154143306525754,-14.159680002391061,-10.989726104163621,-3.9688869074452695,-0.6208670919021746,1.341310027571412,0
20010525,-0.178611643926046,952553.169000001,-18.96147165640299,-10.60012994644245,-7.303828760616396,-0.012645186675057742,3.3189408588372675,4.217978685677144,1
20010529,-0.6267779670818431,549922.932000001,-18.69088980688394,-10.238502371487238,-6.941385757592276,0.3920927952948755,3.595143443207484,3.283673432341939,0
20010530,0.10661447536150546,583668.544,-19.11225808943771,-10.6602268776638,-7.3509650670203275,0.0035666919897665217,2.8663069930340295,1.419002613857328,0
20010531,-0.5222688549235756,818004.952000001,-17.892906174308873,-9.318174225340396,-5.9262298504969575,1.6092066524680402,4.042324396558928,1.524784932765396,0
20010601,-0.5389846476560388,1309561.12,-18.000415104062316,-9.427734156427931,-5.998823654945744,1.498018170887527,3.1141913538638417,0.3343214284784729,0
20010604,-1.5497018890044834,1317671.992,-16.68911960878545,-7.978081316441307,-4.392619310410406,3.088947449025379,3.8522330599548895,1.3964480167301307,1
20010605,0.07259967330146916,810908.092,-16.892474886036933,-8.164351456070658,-4.456562510686108,2.723579374327599,2.7444517804017807,0.7229454423976953,1
20010606,-0.6133895520009611,553978.260000001,-17.339889130099714,-8.613739612477874,-4.758220543325231,2.1249062804506895,1.3132231426548724,-0.2561188742681972,1
20010607,-0.8698254049911341,828577.421,-16.83100872450106,-7.984621885794123,-3.9844775273231443,2.632324223876343,1.0982530000314983,0.10147088158405898,0
20010608,-0.18038508293793085,474176.249000001,-17.035926695685134,-8.14596551769216,-4.046983778413934,2.256342888514171,0.20038429865497528,-0.38628550514358423,0
20010611,0.07332892124421693,914462.337000001,-15.871629384513552,-6.812532097948414,-2.5365082726671226,3.449331568497683,1.237643944407678,0.8190072799470479,0
20010612,0.20337947555426183,675056.568000001,-14.726327325734069,-5.493075987288144,-1.0474766475345458,4.59291950031351,2.14052208770774,1.6761255540014084,1
20010613,-0.22225975704245748,519218.666000001,-14.559878762530593,-5.2603629617118175,-0.6862383943676313,4.439940266014646,1.786255285036758,1.206851713330504,0
20010614,-0.4603648778405944,839295.185000001,-14.883791208791203,-5.545116291475534,-0.9307372239411185,3.6823188946975365,1.0423290301931338,0.36093033180411854,0
20010615,-1.2114899682052411,1218028.398,-12.426704856923582,-2.7595356868764713,2.084672733252903,5.949841026203273,3.3022146694441186,2.164839381646746,0
20010618,0.019155333094590374,692726.226000001,-11.194418302504328,-1.3509701204565128,3.574895964332207,6.651397922895651,4.1154261506386725,2.503463228700803,1
20010619,0.3460689298034063,1217448.598,-10.824979049326656,-0.9188199689846709,3.9988696380892916,6.290046411657777,3.8313422073239547,2.0186147776722696,1
20010620,0.0,584972.036,-12.183208123661865,-2.42188449681593,2.4677512087478846,3.9006417451964994,1.6236920061108198,-0.10217547241098286,0
20010621,-0.31981721614518066,710250.714,-12.41848205424622,-2.6617762533672282,2.234974316469095,2.917139258176736,0.8152748846694915,-0.9599424165421594,0
20010622,-0.34200723053872023,737623.754,-11.564456266237748,-1.6971119083948554,3.189827759220311,3.2572752140981702,1.1407205795427855,-0.19376744058175163,0
20010625,0.6611900858110258,681139.690000001,-9.274665742634474,0.8546762225114364,5.8095592253906005,5.366570319410871,2.9974138368181764,1.9761892688313711,0
20010626,-0.29277032507114414,829156.889000002,-8.876168891174755,1.2840691684022691,6.194816608781395,5.246805949228628,2.772698884590276,1.9941728531824692,1
20010627,-0.27014253794158977,698084.871,-9.69868200643752,0.3410004222724975,5.162821004001779,3.7199410496407723,1.2706487056369307,0.5021407258053301,1
20010628,0.19282877864876402,873329.928000001,-9.76426751574578,0.2243483308171525,5.0235887361203595,3.1541179129842627,0.5934438215259416,-0.1811083608437627,1
20010629,-0.48239684472800876,673173.838,-9.553528731522505,0.38528061138981484,5.132875610328372,2.887090647031867,0.4994357604943031,-0.4050792728572931,1
20010702,-0.361388990729577,776293.643000001,-10.609460066654297,-0.8632262581767368,3.7618195701372996,1.316368357651063,-0.7496823029657959,-1.2826414751065893,1
20010703,-0.9435869969175658,485762.721,-11.245568994162984,-1.6321923573005663,2.8815829744441834,0.24244146645387007,-1.426420435913679,-1.4792973788339148,1
20010705,-0.18991522624684196,586565.143,-10.457942034570017,-0.8506330507541595,3.6350655069910656,0.6984614114279265,-0.7677254211163587,-0.45227347792578576,0
20010706,0.4710338729572949,582510.115000001,-11.06376969008914,-1.6127943279443855,2.7762561812961604,-0.35443525058132186,-1.618790048795419,-0.8556660517209472,0
20010709,-0.23133872286512616,568026.697,-8.905236236183093,0.6556206379814268,5.05172332000368,1.5548948092502006,0.4489199076877646,1.3988039592687633,1
20010710,0.321846643090176,555571.257000001,-10.343390355566449,-1.0510815034130938,3.160753351426933,-0.4106834443622221,-1.0504975738136335,-0.27628368561009187,0
20010711,-0.01915900306544516,600323.933,-9.035362243991223,0.27226609356260084,4.441068017237547,0.6873500599759766,0.3949531298591506,0.6825603092096351,1
20010712,-0.24853453190817168,680270.694000001,-9.176948007018664,-0.02045566509277497,4.084446387946344,0.19871691972167477,0.17195379139706118,0.24460447583569264,1
20010713,-0.7079665118889258,894909.980000001,-11.29314912893669,-2.4516928871489307,1.5044126495052994,-2.3788780997142873,-2.015627065689258,-2.0491637415382504,0
20010716,-0.28363823531022286,826260.455000001,-9.818957492594095,-0.9503222415086188,2.9731145997032282,-0.9339665000246441,-0.37253527682105214,-0.2269653446642476,0
20010717,-0.8406500510533099,612055.394000001,-8.703943417997774,0.17296693018843573,4.025479610500664,0.14232664705702722,0.6553362461848314,0.6534269356672814,1
20010718,-0.07644539970418851,543551.696000001,-8.478658992582481,0.3211510018225238,4.030544922751372,0.2638474194138168,0.6157455365303767,0.7993529838633603,1
20010719,1.402018430085882,889674.142000001,-10.409047472089503,-1.863550227939634,1.6490649600970253,-1.947584705844142,-1.4952246369749476,-1.042891639324744,1
20010720,0.7559291439923458,1102163.175,-11.486630387764086,-3.137100607199852,0.23813236637063484,-3.1822187094465644,-2.6235894752020084,-2.1866138326221916,0
20010723,0.018322945904826058,704746.763000001,-11.833312974504473,-3.594444164141698,-0.3318365168345291,-3.544162282879758,-2.6750704371217617,-2.123177995469719,0
20010724,0.05619502660440315,658401.316000001,-9.742550765555357,-1.3944022152241913,1.800732978607875,-1.2107177760886247,-0.4065859485286042,0.4387555652079466,1
20010725,-0.03864398805955727,643918.282000001,-6.7794506393058995,1.7328608312378178,4.868940874698274,1.9480070343259395,2.646973167630904,3.383589186404021,1
20010726,-0.14956374985801604,636676.65,-9.833015994936959,-1.7128538278042296,1.1823217270420792,-1.3717402945838137,-0.633171238322961,-0.13084799671122468,1
20010727,-0.2606089679669416,747617.051000001,-10.02217332248132,-2.0460606811946382,0.7151411923870648,-1.5492758466422938,-0.9733354174863986,-0.6700372452527192,0
20010730,0.01850615128376818,741099.598000001,-10.320565429972943,-2.4989392488647897,0.03953343042356611,-1.824170106397002,-1.2463758787069588,-1.3482133517858574,1
20010731,0.2817819925818335,596993.043000001,-9.005744331073414,-1.2396016466719761,1.1378231865548838,-0.4632963330299341,0.23088732796217123,-0.07113840468458225,1
20010801,-0.20082337584094923,543115.814000001,-11.35265509642162,-3.9640605429629843,-1.8009259014591519,-3.0406508791307805,-2.0709382151029896,-1.69685182934242,1
20010802,1.5596557011541292,514584.36,-10.688317331072716,-3.420724366929665,-1.4245989247969324,-2.3165099215787515,-1.3302648677521436,-0.7889428941193396,1
20010803,-0.10821153001694526,409871.478,-11.994415605461798,-4.985697258641245,-3.1730391234343522,-3.7095775045480317,-2.739529096878066,-1.8154967275160538,0
20010806,-0.6495305606089119,396402.11,-11.826661595884815,-4.930028438199194,-3.2719402797817367,-3.392849674842658,-2.582517826150602,-1.3065888798276912,1
20010807,0.3805125109889471,361352.888,-11.311494102056043,-4.470565389106822,-2.9139070762205934,-2.79394591473894,-1.8607849054623231,-0.228255022109081,0
20010808,0.07234998518922306,425299.32,-11.247571950225284,-4.48574364512856,-3.0409957035643136,-2.619803449206906,-1.328382427342013,-0.17730989123910978,0
20010809,0.3140966802315433,503632.573000001,-10.017687834589854,-3.2479931238294193,-1.9373663630045173,-1.2434408442409355,0.047406314828870505,1.0556195185619444,1
20010810,0.5192644996881235,594182.885000001,-9.422315578468087,-2.71498296663166,-1.507354469993032,-0.7074179119596157,0.6386580158125097,1.1461137797017729,1
20010813,-0.10975243850441573,737194.939000001,-10.413399535723467,-3.8552346912455846,-2.774257394471867,-1.768474993814915,-0.44595810983666523,-0.27056476446651606,1
20010814,0.10971416572613997,345960.230000001,-10.493671749914647,-3.99575841885613,-3.028751410798175,-1.7803879366912607,-0.3781989028583388,-0.54778340638862,0
20010815,-0.6742544301973699,631840.738,-10.519232230095174,-4.034375450223293,-3.214752917447043,-1.7059239564642323,-0.49104792340637715,-0.7326164686775525,0
20010816,0.16571040714384194,557819.274000001,-9.286069190060529,-2.701883000498456,-2.0664803639795886,-0.4064677434749953,0.7430984929632586,0.48684391935602994,0
20010817,-1.257378561044393,1201157.721,-8.959941157553677,-2.3158861316274306,-1.8561044386978014,-0.1436244714412161,0.817309353397518,0.7877020881892316,0
20010820,-0.2815236285507662,1618695.242,-7.446460575895278,-0.6611216678722917,-0.39121257598167863,1.3306782479135415,2.0622213105019247,1.8479610455512294,0
20010821,-0.45728743664378835,1472521.257,-6.012794464357543,0.8978578684929097,0.9820891190234601,2.7543490225823453,3.1052829021049075,2.4575229259824196,1
20010822,0.47276313751701393,487247.396000001,-6.652244673942833,0.25370806604556406,0.17162388703678721,2.1067711092816337,1.9414262774793558,0.9187907044985719,1
20010823,0.0748120280518363,354009.021,-7.455525863971214,-0.553783927792877,-0.7925553958847552,1.1565589696392704,0.8236858110108467,-0.3446197234645984,1
20010824,0.35509665773999893,665760.881000001,-7.5358333355716525,-0.6117735224674778,-0.9918693072391609,0.9843590935096809,0.5588340366324375,-0.7437152995087161,1
20010827,0.01810078200625312,512112.714000001,-9.595787239735621,-2.757714474591987,-3.219179483681732,-1.265428293358566,-1.7576646318589528,-2.500478752567565,0
20010828,-0.45595453032754457,447146.561000001,-9.60101751232252,-2.723694175049839,-3.213011998941331,-1.1953607936753345,-1.8488432119114249,-1.7467251196880726,0
20010829,-0.702707443542884,463244.242000001,-8.221196037835607,-1.2332914295737523,-1.7439476530793627,0.1826268607528445,-0.5972215946994005,0.08882179562480222,0
20010830,-0.45000013473058353,522892.570000001,-6.853677201699744,0.2505907935900687,-0.3493887273618841,1.5024211085093242,0.6185750355015057,1.4509944464055224,1
20010831,-0.7372615920395303,755880.105000001,-6.006722011088782,1.1643761935678625,0.46787044406836115,2.1309413532037293,1.2152591960751717,2.048794004112793,1
20010904,-0.12933655922260956,736476.471000001,-8.013532534651297,-1.014391679967693,-1.7102276801482903,-0.23263318080293094,-0.886792001848413,-0.48027152710093146,1
20010905,0.01802837509470012,1107157.826,-9.405848770673815,-2.510830089096742,-3.155582264259391,-1.8252292739006706,-2.0324510751704756,-2.032451075170494,0
20010906,-0.3649635036496228,1278772.905,-8.981523722627692,-2.0752553695779685,-2.6754603993623327,-1.4858760172833057,-1.3426304639650808,-1.422885728668503,0
20010907,-0.09228468233385882,1297457.425,-7.83044015550496,-0.8676404291768114,-1.4586071377428482,-0.35700647583891487,-0.06823232403592451,0.022169538629634132,0
20010910,0.11596100603108771,1213806.407,-3.4734343877091995,3.752781122214024,3.0987721449457273,4.035817525092533,4.21343483157912,4.2114929008561255,0
20010917,-9.591095919433897,1231629.145,-1.609604655432965,5.642133363465585,4.960759332758941,5.57103913897088,5.349962570092788,4.842893261204251,0
20010918,-0.13227932826209304,1338565.244,10.539039848751157,18.483415915391983,17.562171284283195,17.506169863152717,16.195208760254022,13.449667239771346,0
20010919,1.1111998339109277,2320101.5,11.347576536723318,19.142906878323778,18.034450708274143,17.219061916093064,14.977945286423816,9.86677739272084,0
20010920,-0.5401227081170469,1070362.74,12.794651491482595,20.475253000591866,19.171619947669562,17.596858232343333,14.424025434281319,6.858717483480984,0
20010921,-0.11946163535790698,1816469.573,19.39812900487433,27.26272660058054,25.616086587436328,23.018374500246463,18.499438633002935,8.416055096116972,1
20010924,3.4400073454627638,847867.972000001,23.184985591592326,31.004922872640968,29.06692846649338,25.376101819414664,18.958392191208063,6.850209063170966,1
20010925,0.46582915581851025,1224298.309,16.75936845346063,23.89595812891953,21.86428040773437,17.697575814364427,9.918714150899202,0.15380393679180546,0
20010926,-0.23128735540379744,739351.259000001,16.124332760938774,22.982056094671403,20.789984425542144,15.919358918041098,6.615051315842035,-1.240964817698978,0
20010927,-0.2583508100057727,1089766.63,17.83116690137756,24.57167799695382,22.137476402270792,16.360512513972903,5.458192760098484,-0.6625938421324614,1
20010928,0.487329759804136,1137916.802,16.36605269565743,22.826139020737354,20.162383212640567,13.72000053369448,2.1372128473600394,-1.3740631160418593,1
20011001,0.15360304809004427,1019194.783,10.06052338582753,15.973862249291102,13.319043308489805,6.5196924154158244,-4.586359923166935,-4.603928074663063,1
20011002,-0.5270765870686386,593033.233000001,10.186760277993473,15.881546638387563,13.112611333093454,5.567759324836993,-4.472923412931369,-3.4035260476830698,1
20011003,0.0,1005253.358,8.814981912901521,14.221401041293394,11.416015728453583,3.3558188735211623,-5.4497783123070125,-3.364356108640978,1
20011004,-0.02096709988544574,764647.790000001,6.178916213645625,11.257472947883052,8.415154655151998,0.16080853999092393,-7.1838450014737845,-3.750436814580959,1
20011005,0.48991557295029514,770396.731000001,6.983723541958055,11.87941222371484,8.88484688990826,0.23219733713598312,-5.471509313291978,-1.4221321884629596,0
20011008,-0.9484113882064956,636583.708000001,5.976245793336579,10.596148195716204,7.501858353199187,-1.4847136439777147,-5.0053160714989,-1.6270510797229003,0
20011009,-1.295750162977682,562849.795000001,8.664891503430312,13.147726073324401,9.884940862384745,0.021575140471226637,-1.9222984509359629,1.1446310495762682,1
20011010,-1.595718654434269,894436.638000002,7.116025993883788,11.29411620795105,8.06429357798164,-2.2999694189602633,-2.5723241590214143,0.008501529051991856,1
20011011,0.08262448656906027,1152289.829,4.177713976615509,8.00895494885008,4.8274812608853415,-5.651306834055556,-4.112856726762606,-2.3655568830952536,1
20011012,-1.3221419777950418,1402524.744,-0.4915100387480134,2.974720168834781,-0.056664038078596025,-10.065156835936405,-6.988403955363154,-5.356249326306102,0
20011015,-0.5038104282967718,670647.753000002,1.6557165110838552,4.928803479187408,1.8579080864469106,-8.324005119177237,-4.2386092515809315,-2.510134117810589,1
20011016,0.6875608444851368,683152.442000002,2.0976039986632626,5.126045072141592,2.089888554698276,-7.5706667829069,-3.0973657062319417,-0.8773811080598134,0
20011017,0.9441534668044828,1084736.021,1.4978460596751508,4.274266476488565,1.2480784888924659,-7.684875065686524,-2.987220724024244,-0.39781487662485765,0
20011018,-0.1630509556190946,871695.196999998,2.9553878534356817,5.516368032645328,2.4471752958774786,-5.931849384241134,-1.2770666049980746,1.2830383096562996,0
20011019,1.3790185624597016,1292696.081,4.087260424741314,6.440274087705704,3.2796499346142283,-4.246924501618346,0.11085995609389221,1.5065356189754844,1
20011022,-0.4541676561387016,1239965.563,4.453658572785586,6.600424483495608,3.349839705533116,-3.1330889337449577,0.6422464972690621,1.3382806934219882,1
20011023,-0.39676427467154735,972769.972000001,0.42066140690160664,2.331022915917909,-0.8644498068947395,-6.181807031655543,-2.480646688686928,-2.2543398766636447,0
20011024,-0.43788977198249207,1083442.161,0.8201160264794604,2.5738302189735083,-0.7124037286457221,-5.164237284739954,-1.509288701012866,-1.7481818988388675,1
20011025,-0.41947802118925065,1297026.279,1.1966364236699434,2.786697866720264,-0.5597174768153168,-4.112076143443683,-0.8549484624881561,-1.050676160670711,1
20011026,0.416317598180846,770396.900000001,0.4616950765671272,1.9205235172425603,-1.446904546153994,-4.10592875013536,-1.6475177668735634,-1.0587175936215811,0
20011029,-0.46816269284712,714629.136000002,-1.0642159887797846,0.2514333800841479,-3.1171388499298978,-5.0498316970547075,-2.8708274894810772,-1.502776998597467,0
20011030,-1.4436489820386935,799717.940000002,1.6783147149016595,2.9140612390767986,-0.6516566369233084,-2.007202393304305,-0.12024163611631357,0.9946162182103311,0
20011031,0.41095485700779694,559831.483000001,4.25886610730324,5.371658591349562,1.5839813282911699,0.7091408650436959,2.1521507917749894,2.8818246277475956,1
