
19981019,0.35556759810381217,540221.709,13.80105085434632,0.718995515144833,-7.449925934067892,-0.3472471629361124,-3.490863497573525,-2.1208290783232893,0
19981020,1.155617263131931,1371480.936,16.721425506255045,3.2058864828474607,-4.8550596640232415,2.2715897414362103,-0.8889959147893041,1.3016507505738037,1
19981021,-0.363625427890759,1599952.232,16.19655124621136,2.6076048839039463,-5.015763639549255,1.9454875666516047,-1.2304163975324134,1.0787685114239334,1
19981022,0.7760315100993567,1146675.974,14.379964347631132,0.904700754521547,-6.184158395437322,0.09670447432075831,-2.316180353586983,-0.6567609410782735,1
19981023,0.6904282219052608,898139.470999999,10.163864362259996,-2.8887494460561527,-9.300760811681426,-3.593913506548648,-4.758418395530219,-3.394692317527489,0
19981026,1.4384541955120784,925538.965999999,10.093821027399827,-3.024595729573649,-8.988002537280295,-3.906027530235728,-3.8780168994782627,-2.819310639322622,0
19981027,0.34284699851692546,805154.228999999,9.299468408393476,-3.8215938132205203,-9.323100934600207,-4.698039447746345,-3.5542668486307707,-2.2742554080692954,0
19981028,0.6904282219052608,422857.213,10.002070539867153,-3.2974104597020872,-8.398065013462269,-4.17413637509048,-2.3129966099254573,-0.5868764019280397,0
19981029,0.0,519941.622,11.146209744220432,-2.355484575416097,-7.14952182534706,-3.178041617510488,-1.0878159592359307,1.0238710811014413,0
19981030,-0.7588170765958133,360291.41,11.46001695216235,-2.1263477661810937,-6.645718697378743,-2.6837691231349314,-0.449484193305036,1.0858200073299842,1
19981102,-1.1344872267145545,697282.658,13.890537696455073,-0.01793180196450617,-4.420414587589198,-0.5053092147462914,1.7313037586973472,2.626811920874417,1
19981103,1.035642332857902,768046.749999999,9.678694541992318,-3.699385665359555,-7.6802008969857045,-3.832404197187908,-1.4154150948314776,-1.2313009023233927,0
19981104,0.0,480892.557,9.207580582111099,-4.116340577558731,-7.750207826138607,-3.8847777249965394,-1.2155849810977222,-1.502286087524491,1
19981105,0.0,931148.897999999,9.101236070700455,-4.166568938899109,-7.467128832412978,-3.5004292599410083,-0.8199483403598273,-1.2155849810977004,1
19981106,0.6806375623336631,1222833.853,7.853827515526052,-5.2275718175421515,-8.120911677425307,-3.928020313886242,-1.7470431670082869,-1.71299905161073,1
19981109,0.661866291585294,1029311.994,4.832020786552238,-7.871890436258212,-10.202917590387859,-5.948752366570634,-4.043072478047863,-2.9013114757999943,0
19981110,-2.3809410038872083,599982.376,5.190617436740341,-7.532244423048,-9.347002649604756,-4.95293905431331,-3.361019990299906,-1.771866406404909,0
19981111,0.3452141109526194,386828.028,9.23360605372228,-3.9607962889173045,-5.27950922743298,-0.9464837441518134,0.4200291216218526,2.0023163233766113,1
19981112,0.0,579486.96,9.979896468186901,-3.349040285856899,-4.127882675618301,-0.1101041696631355,1.2116398873881962,2.5507747376372767,1
19981113,0.3354396854106561,650034.281,6.0394220060499695,-6.865926688329488,-6.985290125162477,-3.2802321049564522,-1.9351491318989829,-0.7830224080949426,0
19981116,0.729844776249578,556618.169,6.395750910337501,-6.629513832526997,-6.104768157690113,-2.6389491204310547,-0.9545037176657415,-0.752376083864904,0
19981117,0.3391645405363282,482402.287,7.068917112625529,-6.136882954695167,-5.054432189044341,-1.6252152554527586,-0.10740820239133711,-0.4974657176726487,0
19981118,0.0,427387.477,8.916617944430559,-4.620310407193803,-2.983839113590515,0.3826278229415206,1.6398228869135139,1.2773294504504167,0
19981119,0.0,357486.542,8.836812163056216,-4.763609641168552,-2.620543777394676,0.5638683345187737,1.6053014758182433,1.426934645171767,0
19981120,0.0,715189.539999999,11.954576942297559,-2.138055318751953,0.5787725377071412,3.3945905668504377,4.170659666083432,3.2464778741607643,0
19981123,0.0,993067.191999999,11.049471809983533,-3.0089419194034743,0.0627203435646059,2.5528761101254807,2.770522885272873,1.5646455339896874,0
19981124,-0.7273816092615285,1478273.29,14.284922946974213,-0.2891547833545798,3.20401203978042,5.3575519287446,4.939369611322202,3.1999822175267227,0
19981125,1.538481963861337,770635.279,15.905902072463144,1.018395932077347,4.818921681868237,6.630766983975243,5.85845912826438,3.3969278156158453,0
19981127,-0.7385722441284615,120169.08,15.778121639383416,0.8225753773847716,4.792004885755608,6.341538216433638,5.243079619229698,2.006160300580189,0
19981130,0.4291056375009671,1147107.629,15.224917360127266,0.24499101179774863,4.387054872346329,5.698969961282589,3.893326772408652,0.9319687668239447,0
19981201,0.0,1606641.587,25.608160406648416,9.136734104463596,13.762670941096584,14.785758639113897,11.499285188233774,7.429681295036747,0
19981202,-0.9160349446426007,1604483.342,32.04367320130262,14.579257928073396,19.436120816266936,19.728709219340576,14.926033028951263,9.852035650103534,0
19981203,-1.7693088732641769,1303952.914,32.38907312827787,14.794310972677094,19.629193291039677,19.065829955187056,13.113956133721139,7.317774774981095,1
19981204,-0.44246450021876094,974512.452999999,37.71529851636767,19.28519788393462,24.0256314386858,22.640077960303906,15.051589037826679,7.861326120679385,1
19981207,0.42461580743420696,1875027.169,31.94679934956367,14.206090587759268,18.53186145401522,16.4543663971784,8.464283260426441,0.4246463443495112,0
19981208,-0.4067674638684839,1190688.244,26.227805137761184,9.191577090552181,13.045765362017175,10.413546921599636,2.379655483608644,-4.054247363178547,0
19981209,0.0,1206005.317,32.20779928218611,14.276577755749933,18.037851714206347,14.409583536008071,5.668489077046072,0.4693563459316304,0
19981210,-0.8420804018731098,1344728.49,30.24011630459626,12.53148414778342,15.959434192219014,11.78600680992026,2.8561847187084997,-0.7017033884576553,0
19981211,-1.785739052177541,1024998.094,32.312664600666594,14.329019492417375,17.543465363165538,12.621498214723271,3.08577804009439,1.7000580966191565,0
19981214,0.0,1752051.935,35.62362726941761,17.201441980467568,20.29853585956917,14.11948177343019,3.9177390506038487,3.7269892524178068,1
19981215,3.882038036468637,5276218.292,43.17842199240873,23.723501941354016,26.687443677282996,18.850907696070056,8.36954737473326,6.863348107054203,1
19981216,11.411232052955436,7020290.051,24.276238812231917,7.479454130151029,9.961993636956958,2.3902855794331592,-5.334220002796957,-6.049960376654851,1
19981217,-1.5262731565325593,2118599.524,12.194441115069731,-2.8203178199108296,-0.5884528505666579,-7.72885206820024,-13.034106699506735,-12.45414133963791,1
19981218,-1.5033282608329102,1911917.214,10.351264816955327,-4.252943931356498,-2.0191224185059067,-9.341489550778869,-12.495436695583832,-10.607285978752591,1
19981221,-1.8440229681480031,1476979.102,9.033197033751437,-5.231737524481296,-2.9089077295466885,-10.333048413303466,-11.838119219781156,-7.781037673615118,1
19981222,-0.3650837186047054,1856688.413,11.360685522763895,-3.0855689571229914,-0.6521035619939706,-8.485434051996222,-8.826076058670598,-1.374772478829209,1
19981223,-0.3621781760290166,2056252.015,10.41532586916247,-3.7448194190036728,-1.2776655922915559,-9.130335939800272,-7.976974327039095,0.02420600903099713,1
19981224,0.7877897170233291,326635.506,10.664331627436255,-3.359164119153017,-0.9042675320803134,-8.724270983972247,-6.278834411177861,0.5332649928478012,1
19981228,-0.7700556357208668,1333294.687,8.02634421039581,-5.462404030618151,-3.142141406498572,-10.59238686572658,-6.682446949237675,-1.4336454881130234,1
19981229,0.0,1376227.073,8.70184804981024,-4.645229306041042,-2.3761634032555516,-9.767209867256748,-4.095591625815003,-0.7403533809213455,1
19981230,-0.3490298451266417,1371049.537,5.802666984613019,-6.978893797535046,-4.838828785863061,-11.422318582293737,-4.043048269283872,-2.4083686839529053,1
19981231,0.0,1100291.202,6.494634867480888,-6.176855254605078,-4.040963434898792,-9.906159184778076,-1.9929333269259601,-1.0784896440612304,1
19990104,-1.1014794368409675,900081.774999999,5.195900000125031,-7.078214170025763,-5.010977273778925,-9.994178055207806,-2.568109249950899,-1.2985375724929134,1
19990105,0.0,514979.249,3.5674869845120436,-8.243522460115203,-6.282268732378363,-10.154281149332627,-3.4628656387420955,-2.00000246563825,1
19990106,0.0,699439.977,3.783484130989829,-7.782882301130156,-5.952974387902513,-8.896220533222502,-2.769505967579123,-0.8715832393167477,0
19990107,-1.4037246916481396,1429299.983,1.4637978820570643,-9.521930472745568,-7.858498542733133,-9.929819822220699,-4.020227299707573,-2.2347180800418727,1
19990108,0.0,1691859.028,5.326890839912882,-5.804261718213722,-4.24400030730514,-5.45826254189237,0.12259461283955043,1.7279618740073757,1
19990111,2.1110478530548713,1615054.777,0.10184700206752717,-10.178304617505129,-8.803351212057622,-8.9861444880592,-3.883366793515724,-2.3555808587780693,0
19990112,-0.34781586395534136,1831877.133,4.2923791930821755,-6.151869588436627,-4.8312686586764135,-4.08693645638044,0.5101674543905915,1.600028015373441,0
19990113,-2.72999808644994,1333783.051,4.136081549750408,-6.056238360800437,-4.817356024118197,-3.037666919722203,0.8000140076867149,1.3797321280052475,1
19990114,0.0,383357.84,4.949053057081654,-5.102164044194829,-3.8844555425385368,-0.8961809202553007,1.6871515714631906,1.487991839702681,0
19990115,-0.7059053058183977,389818.512,5.154811418639081,-4.683177486029431,-3.5862548632339695,0.10539804723182489,2.0282868874162125,1.7283024700351368,1
19990119,2.1919723796169444,949563.243999999,5.7107942518777755,-3.909248771002642,-2.963597692687488,0.9735840534647134,2.5521422766146515,1.1614391485246283,1
19990120,1.7774138893416815,815172.935999998,2.1502960092470413,-6.851839777122419,-6.076115252194418,-2.02833637122549,-0.7579664399361952,-1.834812762110823,0
19990121,0.39860524956982074,824649.276999999,1.2892193837440136,-7.318415685177854,-6.722363471569599,-2.4758966471779478,-1.350511379873279,-2.1184213269752687,1
19990122,-1.4131113651554128,1202191.642,0.3953540326694791,-7.791414194908754,-7.454020616548462,-2.8312082485673615,-2.1258395941459396,-2.1254743547132215,1
19990125,0.3344590011608878,593342.333999999,-1.1527622880068809,-8.826155750329782,-8.753574785680883,-3.7926762362437834,-3.0217038201076387,-2.441454668560249,0
19990126,-0.3391856865101088,1888789.488,0.09661009107854403,-7.263111182535635,-7.425597683894959,-2.0886156086288934,-1.8087874172580434,-0.14694799842703044,0
19990127,1.4543377050330644,1498972.432,2.814403430873871,-4.348303105627344,-4.7365253256222655,0.8578688089164727,1.0296505480076736,2.4664605269092643,0
19990128,0.0,1707447.904,5.326695665479061,-1.6237153367543051,-2.3651870243386326,3.516058853102541,3.403031631678223,4.191078429229549,1
19990129,0.0,1422084.157,5.134497957525252,-1.4118919989250074,-2.4880698131620584,3.393606803363103,3.217942404398419,3.06868809732904,0
19990201,-2.4487853578187413,2121819.978,0.11213685528669133,-5.7573266711064415,-6.997398640817383,-1.224926196704958,-1.2243681493555532,-2.118445856529092,0
19990202,-0.35963703371064976,1515984.724,5.14127270474923,-0.6883687679688699,-2.2286114681242686,3.7650268147024013,3.810591162245728,1.7854359260234334,0
19990203,0.7555557966631364,2085636.05,10.268232479541247,4.483200377574548,2.5733706929522557,8.557330559390651,8.123370828575238,5.327407511887356,1
19990204,0.0,1964599.92,6.301121387586131,1.0604972882333707,-0.9706002567662858,4.564551837975204,3.7590588728482732,1.3624859171535588,1
19990205,0.36484397516178807,755515.912999999,6.090127597138901,1.1283674378390365,-1.0351429245159212,4.1572759189876,2.998729268740001,0.985380040348987,1
19990208,0.0,438492.142,2.418756278971954,-2.1188928485913445,-4.232872738144837,0.6968154447824262,-0.9470051600005462,-2.9999201865860257,1
19990209,-0.4084855357899366,378403.917,1.489937476190532,-2.795835182561162,-4.8536052714624525,-0.3121978634031452,-2.025618040250088,-3.222346132714425,0
19990210,-0.7588854090575828,297209.837,1.3366183583382476,-2.7555649710765335,-4.747575049316242,-0.338499856043116,-2.060658027576848,-1.7629375755144852,0
19990211,0.0,1733076.166,3.469226585473406,-0.5309367096419361,-2.5307245545707797,1.7821347429002123,0.16123785412217867,0.8358395490483281,1
19990212,-1.4979069563377179,791266.995999999,3.6648665458843612,-0.1549136200105791,-1.9676313765568614,2.0370721648420425,0.4852583657226048,1.4978037236046686,0
19990216,-1.1217255986859198,700596.721,1.955835312425313,-1.606567110288333,-3.0868139077191956,0.5135044421503637,-1.3636918413946308,-0.07091675608603518,0
19990217,-0.7937634934534655,609279.733,5.233692808137254,1.7609584592284702,0.5041929961580828,3.797264888489181,1.8192528078216454,2.429755152165377,1
19990218,0.0,426861.583,4.6498165954882635,1.30590955537512,0.4906018288050057,3.114293761626535,1.788272591505737,1.2165221264443133,0
19990219,0.7324923674058579,1316983.707,4.830798339105443,1.6045961233522519,1.136426867783226,3.1318223295124077,2.1245039799935053,1.1355406716682677,0
19990222,0.7324923674058579,410709.258,4.628435324776408,1.4792664294711997,1.3385716201610878,2.731949342190035,2.0878727874680867,0.7570271144455235,0
19990223,1.1693573504639425,677121.754999999,5.282695419718862,2.1875411687212596,2.4219308511272786,3.0339210382270942,2.4431523743003885,0.7139401762982209,0
19990224,0.0,638139.351,5.0998082216835545,2.0912225967076528,2.6711233809178716,2.590842883593091,1.9016138801379052,0.5539172742297435,1
19990225,1.164789833409042,869446.073999999,4.5250242967157135,1.6501074865576264,2.579516284081431,1.9435193792717402,1.0238556775086531,0.024455172559505942,1
19990226,0.7216111665831347,628878.537,2.344503931174977,-0.30209632447114776,0.9694351307564273,-0.05403665815804567,-0.992085847381567,-1.5994591801450797,0
19990301,1.1472054019185567,1499186.172,2.6161647886884603,0.10354630959077982,1.8432174293027384,0.3109198451838718,-0.6522332854734951,-0.9662744241213642,0
19990302,1.1876286328473522,847694.458999999,6.0317414380496155,3.583555994072004,5.559849187450978,3.3344595367669663,2.237582261084466,2.187562675913202,0
19990303,0.36937537524005504,1550874.546,4.261362567046207,1.978253637757749,3.9233390367612975,1.6093010495456128,0.5846786752319654,0.6154400762342109,1
19990304,0.0,1357473.575,5.737621296821006,3.56720136652004,5.471999935389136,3.2344472876220234,1.8813071318290602,1.8000320362251667,1
19990305,0.4225451026905566,393264.443,2.0292393667935755,0.13217897496728043,1.8784854443681605,-0.2204933724535465,-1.4554071207108183,-1.7271417275318877,1
19990308,1.4979069563377179,766068.876999999,1.1161516643697122,-0.5957573927540493,1.1183356818780286,-0.9227715924165344,-2.037220561895761,-2.3368019531633,0
19990309,-0.7588854090575828,1210375.643,-1.5890081055901881,-3.068518450998657,-1.4089544957925204,-3.429593764969298,-4.039644093304165,-3.5259254416459025,1
19990310,1.5384676554670098,3205989.696,3.608863020978957,2.1744413976093653,3.9028782651683516,1.529296225267294,1.1569785703967062,1.6985170645591896,1
19990311,3.986139710227875,2968434.342,-2.8303097413948946,-4.059304372709878,-2.406718632385024,-4.6360180905397845,-4.45984061910952,-3.015571052647945,0
19990312,0.0,552637.466,-3.2940215741308907,-4.4008785789079,-2.723924236509957,-4.838838392287355,-4.413080788366587,-2.462573653785405,0
19990315,0.3478373779104592,610141.372,-2.634721436695725,-3.6572927864320475,-1.9804357081412156,-3.959384430219659,-3.2927439824508076,-1.0782709011435032,0
19990316,1.459433702508384,456798.639,-2.0316183394792735,-2.9404232206865175,-1.2821366471496887,-3.231121845363897,-1.9556009288676932,-0.3852764160894841,1
19990317,0.40436213428556234,529162.801,-3.13226187736006,-3.9012958251164584,-2.2983122546610097,-3.9687894641890686,-2.3627937068809954,-0.19643290388001738,1
19990318,0.6711627666071335,737639.868999999,-6.268057976321385,-6.9000073476182076,-5.367049666285586,-6.6274914147296835,-4.423916617782924,-2.7404929649566747,0
19990319,-0.34417095182347696,832187.105,-3.9683682567438616,-4.546104335541366,-2.976173540206363,-3.967981110732386,-1.5081282138676002,-0.21798728530993908,0
19990322,0.0,422123.915,-4.360563628151592,-4.864690107893943,-3.340619796518847,-3.977130219787634,-1.3828568334282854,-0.27426998967458455,0
19990323,-1.4492807906620684,447106.713,-3.047709654422402,-3.498647229723728,-1.9223995535295821,-2.295633055288142,0.11594995436663869,1.3101708098767917,0
19990324,0.3489257846758302,1002544.183,-2.7846482677745015,-3.171229221062335,-1.670791967565529,-1.6812960744909466,1.0121228218762335,1.524072746954273,0
19990325,0.0,1987428.14,-1.7667921722043705,-2.0983326597756773,-0.5975947024162893,-0.37938609548976354,1.9588492172584526,1.6235822033823115,0
19990326,1.5151574481970982,2820476.525,1.133305922662814,0.8320130527002815,2.327325175395696,2.6000391581008566,4.515190079947795,3.5636743351280806,1
19990329,1.0665132200941867,941164.098999998,-1.194110126835788,-1.4284706335667663,0.002429287200740253,0.38511347093342535,1.943174583327501,0.4976721457470205,0
19990330,0.0,1734585.656,-3.0096515252503826,-3.2155221232729,-1.7790203517071304,-1.0792080324344109,0.13953272760988353,-1.3846026631118444,0
19990331,0.7216111665831347,619833.015,0.1882774447298551,-0.0031353564865174433,1.4985657136271229,2.366261699308837,3.1028891643063985,1.2628195415204828,1
19990401,-0.4207671716131756,666568.173,0.13854040802378068,-0.05002583658068217,1.401148206138395,2.5556781552033954,2.3512324502273385,0.817834622572239,1
19990405,1.130144006559731,1701848.506,-0.9721237123967919,-1.1674050632911022,0.22595961666585096,1.5317160354635297,0.8803233741608096,0.10697996207657673,0
19990406,-0.3580920444419862,1155025.834,-0.6740436627993625,-0.8937527403362854,0.4728795100632803,1.9134587319812848,0.7940642868439547,0.31049216119156936,0
19990407,-1.1385280044596573,879137.591999999,-0.3666349226011703,-0.6177950004387072,0.6841697765528044,2.147905407846731,0.8207776521779533,0.07182417400909429,0
19990408,0.0,558668.089,1.464815121608805,1.2038698106906731,2.4297367445310187,4.120811934458294,2.2343712609492536,1.660526405751589,0
19990409,-1.538467655466998,558668.013,2.1874271885193775,1.9539175393000183,3.1335967247922083,4.627741985932713,2.5908230033252964,2.0062371026762893,1
19990412,-0.42732008509587277,869661.533,1.2708032565735847,1.0549612519295453,2.2697849199399727,3.492000568006997,1.7032452659508566,0.6715105041851014,1
19990413,0.9549549781223154,2391097.536,-1.065669709270335,-1.238638453042328,0.010792907077402299,1.0567572675969528,-0.6208428856689995,-1.5521779325295455,1
19990414,-1.4384902840984322,733538.792,-4.899292691766698,-5.001464590675336,-3.8023173683878113,-2.6982671071983924,-4.266016177294645,-4.460816633000047,1
19990415,-0.35184422071924965,1139436.922,-3.203133959142148,-3.23480308947453,-1.9511324670807386,-0.9374972433408705,-2.201042678754384,-1.8376299410358472,1
19990416,0.7324130630417692,2889221.14599999,-7.023622652844389,-6.972013996635283,-5.54864363689655,-4.815982277711368,-5.35513010112316,-3.9308549744618446,1
19990419,-0.9443230640643969,1428165.57,-13.441472724380995,-13.248420582452855,-11.762380704768182,-10.92497865347112,-10.664049061485903,-7.691157179257846,0
19990420,0.31569263983544044,1873190.13,-13.194257335893505,-12.86615650434329,-11.211282108147907,-10.240876878738945,-9.1821863356005,-5.00007354846447,0
19990421,0.7122283937164734,775891.37,-9.676159903873833,-9.186225460456924,-7.422110179824107,-6.26976563374307,-4.578924118107848,-0.14249279937798273,1
19990422,0.0,477058.2,-12.114398228728751,-11.471545917981235,-9.714803323312031,-8.345108938682005,-5.844002467488086,-1.0026807561154054,0
19990423,0.0,510811.598,-10.950062346530464,-10.150473031784529,-8.343297544604217,-6.692937817325251,-3.339798469052772,1.1459908217539947,0
19990426,0.33084193937409123,560688.096,-9.1736250197141,-8.213301743264271,-6.317273862419566,-4.331147879232,-0.38592297193299097,2.184244571642699,1
19990427,-0.68340699567819,784706.1,-6.2767694266579594,-5.081724800744353,-3.1738782306345534,-1.0235984769646833,3.325726318882454,3.8610413937487107,1
19990428,0.3264590943596656,774601.342,-10.468061165169994,-9.085641999178865,-7.333623415222985,-5.10723087594202,-0.7398725745118473,-0.6310684721924797,1
19990429,0.3169201536018446,1719043.514,-13.087884614729688,-11.517145130587648,-9.80011101286183,-7.295338481393977,-2.682107064981098,-3.3685025409232288,1
19990430,-0.3108473708235445,929392.322000001,-14.720197842327309,-12.912410514479108,-11.228239014017078,-8.370161101771307,-3.739019583829696,-4.381188835324371,0
19990503,0.0,718919.386000001,-13.569666385054116,-11.50883244356563,-9.779561699646152,-6.570207802959964,-2.4763665444340557,-2.1510984579741357,0
19990504,1.0032021194602911,1004208.924,-12.993079857749104,-10.72418979340028,-8.934523978437635,-5.3922511206282895,-1.8901358602191505,-0.07389506446805724,0
19990505,0.6841138711272586,319687.202,-13.237510622095488,-10.743638340701372,-8.929711429770839,-5.075460724554214,-1.8053432393685744,0.26307719986287037,0
19990506,-0.6885761493254922,350860.578,-12.645399224995948,-9.92842543006118,-8.069192394803414,-3.802336399112259,-1.1123345885680758,0.8368358064152432,1
19990507,-1.6930167023806033,6208425.966,-9.887636128804965,-6.886286435553463,-4.985627146505438,-0.23715619220947667,1.862424046731448,2.8837291220242625,1
19990510,-0.6863954759420905,1062684.78,-12.826420380054412,-9.700650072249143,-7.899050942190447,-2.872094567520902,-1.0981646554571627,-0.6652144943295923,1
19990511,-0.6232982427925822,3153016.062,-14.164485513704465,-10.821530760622629,-9.099669644113579,-3.779135088530467,-1.812914480487992,-1.9427785186028859,1
19990512,-1.2900384493358377,756972.704,-14.667112062175619,-11.181363054470253,-9.357800689115054,-3.9087033499510953,-1.95566900291311,-2.20851831390898,1
19990513,-0.30865801775419854,1372914.826,-14.849523410344831,-11.295150497048882,-9.30642298423976,-3.593156440181068,-2.00107936304309,-1.9342274204660854,0
19990514,-0.30676464963320743,1493736.108,-15.283477025075301,-11.68651092855931,-9.495848620273478,-3.7218542609620813,-2.474417960515147,-1.257658125031596,0
19990517,-0.6774530364953089,1418913.412,-13.566284416003427,-9.85668512941852,-7.473719706746987,-1.8316831128558517,-0.5263228651323016,0.9067138094213716,0
19990518,0.0,354515.158,-13.487399283896156,-9.710382385100749,-7.210087742883778,-1.7821821000932319,-0.39604171147917505,0.8442003656700257,1
19990519,0.3169201536018446,778256.790000001,-12.262383666352981,-8.389829950543657,-5.790918966286366,-0.3035486657457271,0.8870472508425231,1.7107104709646894,1
19990520,0.0,422881.512,-14.163465143780096,-10.31821761924729,-7.603916374358528,-2.4045810841692012,-1.145559467788416,-0.6605165478575581,0
19990521,0.0,634214.642,-12.631680730372741,-8.695020421606632,-5.865775733423868,-0.6190888162235849,0.907664560024635,0.4826966221162522,0
19990524,0.0,1200493.624,-13.658943542012256,-9.74154911544327,-6.881459379418582,-1.600246050390215,-0.20718333537447148,-0.6939734354646524,0
19990525,0.0,471253.648,-10.988143559191048,-6.959417159132332,-3.9370561215948716,1.6559631344436856,2.506644560174811,1.802642230278994,1
19990526,0.9661189069424085,213698.05,-10.328521394940902,-6.27261124446085,-3.153972027326403,2.3778849704579086,2.7643671528803573,2.1256231536189105,0
19990527,0.3722575011543727,423741.016,-11.08313960399208,-7.083319617981744,-3.917918192499518,1.3637002647062828,1.4461009541312908,0.5423278609080425,1
19990528,0.0,566923.930000001,-10.971518357998114,-7.010419095426852,-3.815667960481502,1.2307870783100716,1.0473728244023495,0.2765014881156401,0
19990601,0.0,772451.996000001,-11.752971075086172,-7.855131023760648,-4.610189743723166,0.2025468135976362,-0.06324036430252306,-1.052716144793161,1
19990602,0.3199020343017616,655283.462,-10.465920687227538,-6.573027098798136,-3.2016368894055875,1.487968702344353,1.0346365614773927,0.26663089267573015,1
19990603,2.218768511924183,1342599.124,-13.261384486702472,-9.49093567446081,-6.125367465161495,-1.713141996303718,-2.022727928239716,-2.2188128850757503,1
19990604,-1.8876871533677748,740418.856000001,-16.358891246792002,-12.754100846815936,-9.327742005765057,-5.064549822658874,-5.300508046833877,-4.550378018029935,1
19990607,0.0,478348.364,-15.943685187487407,-12.30665562076403,-8.703346779897872,-4.297174077995793,-4.471640037896175,-2.971119180002477,1
19990608,-1.516695748939519,1401506.344,-17.386617000665787,-13.777902941990087,-10.01222402080038,-5.709412874664328,-5.6947297452224666,-3.365949654536248,1
19990609,0.6246119420100507,753533.174000001,-18.734943349990353,-15.129247975899892,-11.231597140793891,-7.011041767178648,-6.381538099158958,-3.1042572996226117,0
19990610,0.0,653778.676,-18.37454386273921,-14.701651522529739,-10.628838442968606,-6.412025860729205,-5.089134556606601,-1.5035900411326384,1
19990611,-0.9156936083798792,550370.784,-18.241470414538384,-14.513704321518517,-10.228890247313952,-6.096366443217253,-4.1541904534952385,-0.9059958349306303,1
19990614,0.0,374724.088,-18.83948729321247,-15.120689071023104,-10.628903077698615,-6.618828201440008,-4.006593381772412,-0.9645926569316401,0
19990615,-0.2864455799598866,897790.064,-18.686935514837156,-14.957790857765909,-10.231602031607549,-6.20097186159852,-3.0801524013687898,-0.4870601545984775,0
19990616,0.5730964972531065,522635.938,-18.520846872763745,-14.801089725227861,-9.828578234037323,-5.783115521757033,-2.034318028515188,-0.3629132028825157,1
19990617,0.3363771887503747,1061395.392,-17.834532589639466,-14.129485588778905,-8.866553507837601,-4.745320317657406,-0.7352465646859857,0.317099552564604,1
19990618,0.0,390633.162,-20.047666367515156,-16.47636786611384,-11.069731716243904,-7.063909793284632,-3.041067319117798,-1.9869944297654172,0
19990621,0.8940458991448987,540909.676,-19.148789795513707,-15.537136746429711,-9.801355283338788,-5.717720461176732,-1.6142096338833047,-0.8189165017583714,0
19990622,-0.6152540682874069,549509.624,-18.501446310001786,-14.848743343311192,-8.836735358336915,-4.751583666210145,-0.7288832635020981,-0.07575957983244416,0
19990623,-1.1870284374365139,510596.014,-18.04335644846974,-14.359565082907238,-8.12150606019463,-3.8864666712263953,-0.2801174778401817,0.3704410727355961,0
19990624,0.9155899996891678,258200.536,-16.655947138846038,-12.924919962286467,-6.424082804065605,-1.9397515463596975,1.2096314638872059,1.8120745568138295,0
19990625,0.0,327426.62,-15.482380954378558,-11.675784600992953,-4.947358375404531,-0.33175256045353646,2.3218903834335687,2.136560319314725,0
19990628,0.34476443919411465,704730.682000001,-14.540523317910534,-10.629886853328507,-3.805917838728118,0.9700561975562847,2.96906011730671,2.1665010061363215,0
19990629,-0.2999084150646354,1338730.122,-13.07026778919131,-9.06523384256852,-2.2209518813609277,2.7850419871781305,4.095039794299377,2.62001711305365,1
19990630,0.2981851503367927,1164805.276,-13.511633706456447,-9.4677533906279,-2.7401591958399205,2.464005784279269,3.020395565243491,1.0332884418010309,1
19990701,-1.5262998000429768,513391.398,-14.160809270215143,-10.105598267391985,-3.3992270586628583,1.7849101781194903,1.861230460790328,-0.29537325487480703,1
19990702,0.34476443919411465,344410.784,-14.054049791310133,-9.94753165809785,-3.245610525212677,1.8292204004856618,1.3048439562487077,-0.48250084947334076,0
19990706,-1.211770051313686,770732.006000001,-15.284979074352792,-11.173286868947926,-4.539956731430546,0.38780184829323916,-0.5671288094473838,-1.7159656019041676,0
19990707,3.725819181464676,407832.288,-13.08841691666736,-8.79758760523791,-1.970170804982419,2.804275411152677,1.4058489999797081,0.8544200715345168,0
19990708,1.2266340351913552,382678.494,-14.055757626904175,-9.733893835182927,-2.8959998312164874,1.4376397738301392,-0.17178994894299215,-0.1374530570910222,0
19990709,0.29442170555719993,618090.238,-13.961555867336257,-9.563629267057697,-2.6997278366175452,1.3468659015148214,-0.3533376935735714,-0.06873707751381411,0
19990712,1.2500483723250033,583405.0,-12.234061856379434,-7.662829845509559,-0.7449596037338728,3.085020273378868,1.2900039127836347,1.5200304423165392,0
19990713,-0.7583724294506303,460398.0,-11.341210075023405,-6.605698428667113,0.257410355668873,3.788438184724659,2.0090249357803405,1.665793040728316,0
19990714,1.9427171701430295,1102506.128,-10.291547501201794,-5.389890012928069,1.4391647040489837,4.61118220189244,2.9469445718713008,2.2576651836373562,0
19990715,-0.30673904025250914,690998.712,-10.2611896645955,-5.224564803698022,1.5054927688603497,4.266531533212279,2.6711208760335103,1.4507714020443236,1
19990716,0.0,407000.032,-10.536521593641794,-5.387634656119101,1.2106371089354484,3.6021789932626525,1.9742601909981585,0.35629809537662643,1
19990719,0.0,287218.294,-11.297565460684677,-6.064886372994801,0.3878098573540316,2.2576296752213647,0.8108521050144918,-0.7167842018802755,1
19990720,3.7975192598646985,2298604.941,-10.966475118689536,-5.602533780846226,0.8415147905326946,2.196776689911849,0.6874532633080097,-0.4454767577343811,0
19990721,0.0,621233.219,-13.876144332084003,-8.600218653151206,-2.4132061462329206,-1.4142353493461668,-2.5450617679398784,-2.9452642478992996,0
19990722,0.6017870599634102,685631.738,-11.636861879642671,-6.136053396490481,0.10600279900963303,0.7850468295834101,-0.3064807837226573,-0.13039078479922622,1
19990723,0.9353825080300188,908880.32,-13.148622239696875,-7.63129652471049,-1.6232871138111777,-1.1516672532624366,-2.1419942355071027,-1.2802162900298824,0
19990726,-0.8857868604778156,343674.325,-17.60788988088394,-12.254632433996518,-6.618500900605019,-6.134607162988947,-6.613444696642771,-4.962368826550194,0
19990727,0.0,1030808.402,-13.469226301810732,-7.742455573607453,-1.9613985820100945,-1.5035082173466507,-1.7222033768364058,0.3619224253906461,0
19990728,0.3008935299817051,697867.713,-11.185375174938201,-5.256781138981594,0.5751469480030724,0.9589299171063052,0.9327699429432934,2.3770696522769015,1
19990729,0.29805353446704497,1460994.236,-11.91537092469118,-5.9774087151066535,-0.2778562752798472,0.013596359801322762,0.2632681809990385,1.599550413702591,1
19990730,-1.1559798735646938,907163.366,-17.88697091194196,-12.287216537816454,-6.942189097188403,-6.610080088921512,-5.7653206037930556,-4.225817016166663,1
19990802,0.8966388453001801,415371.679,-16.066358467113343,-10.230105224129318,-4.836124080795706,-4.455816907786274,-3.1571696157855342,-2.4728227560475715,0
19990803,1.1671320710511737,388109.528,-16.937793172222413,-11.081212647919001,-5.720683278382544,-5.373343091973858,-3.4977817782419214,-2.6768845373273185,1
19990804,0.6172820630430785,570787.412,-15.332247279769732,-9.29972326274749,-3.8509736768340517,-3.4382998241724776,-1.4625487348062112,0.14239482200645928,1
19990805,0.27395383877815305,3060228.246,-18.611010009099285,-12.721344917667107,-7.414108622697064,-6.948819552476847,-4.503282554032502,-2.224329057696637,1
19990806,0.25851960594226214,5667093.19899999,-23.04814789168036,-17.372879446768046,-12.23044991644274,-11.56739513798484,-8.618988265056448,-6.3394731739744605,1
19990809,0.0,2898587.9,-28.26356021706658,-22.847372533530258,-17.87733509642629,-16.752116570211754,-13.592133056275864,-9.84822517215917,0
19990810,-0.48483481790505734,6110798.25,-27.375400487436874,-21.78785050781895,-16.56524107305479,-14.90692299019056,-10.977649028162045,-6.262522008378372,0
19990811,0.5361750290148325,25701198.869,-19.57137074728803,-13.28250381269364,-7.425523466050232,-5.266193157294018,-0.4605925741197165,4.843223956185191,1
19990812,1.8936561135270369,6160597.361,-22.452217728905325,-16.276954823698876,-10.49934169828915,-8.016799157964726,-2.842616957039582,2.04765993592406,0
19990813,0.80932458848676,1995717.549,-23.147941063631613,-16.89955240513731,-11.098657215411873,-8.172269214608049,-3.080831978369304,1.1745254580996354,0
19990816,-0.2545927431910101,2589688.118,-22.819752458926374,-16.41742220268514,-10.585678700294885,-7.162508929062063,-1.8724655200835165,0.10275289851090523,0
19990817,2.156808293992398,1495767.664,-21.856929093770308,-15.247506248264395,-9.34969730630381,-5.4205035638248855,-0.06049245579931049,-0.1640285105989135,0
19990818,1.077478478200488,1158747.901,-21.72441914283075,-14.956684254373812,-9.109858372674253,-4.827580301768034,0.8580024067388784,0.5344811626400147,1
19990819,0.0,2017397.79,-21.58375728964181,-14.682194760714633,-8.901880958992875,-4.126849023419432,1.3970193464778233,0.48282884383968017,1
19990820,0.8008098483342031,1198675.676,-23.296278403441878,-16.4147571358846,-10.794014714654997,-5.662629476310115,-0.7826424917297629,-1.6753737413908356,0
19990823,0.8019209858644418,1528612.228,-22.969300924247932,-15.903878216745204,-10.318432403044577,-4.9500588981514975,-1.0856288510329766,-1.2163827473722375,0
19990824,-0.5491119971003906,682626.649,-22.83554231605656,-15.603552917723832,-10.08357738310981,-4.264090250090611,-1.5329829648423252,-0.7941283073577419,0
19990825,0.2557684929755053,1873788.131,-22.08425927617517,-14.63348466302504,-9.135292398194998,-2.731835869704227,-0.2595136744797937,0.27257613679960624,0
19990826,-0.2551159866610827,2339392.271,-22.165868669934603,-14.559883011097577,-9.141993913661457,-2.252040927893282,-0.3823095285820977,0.3309218798403694,0
19990827,1.077478478200488,1257063.272,-20.811191798574498,-12.91372951957792,-7.484056280662784,-0.35578542997315826,1.0737758030176772,1.4492270665555762,0
19990830,-0.2591872627973754,607924.2,-20.68404517263725,-12.61775062482648,-7.330330463760068,0.07543275016198757,0.9660279551976283,1.0178654077571132,1
19990831,-0.5540597468725327,1488039.193,-21.39566688645898,-13.240226569225447,-8.128589482938619,-0.5647517262853148,-0.0036632049379917192,-0.27254244738719885,1
19990901,0.25106703489832205,1216706.614,-22.909459847207795,-14.734807754384743,-9.81057350884115,-2.0406818263333566,-1.7795272766400125,-1.988450916394675,0
19990902,-0.7924582304747715,1367185.374,-22.971704947944644,-14.643966226610889,-9.788774999105598,-1.8568208650853537,-1.687953919358894,-1.8671961647168402,0
19990903,0.5123214220132912,1014494.717,-20.80565114400092,-12.122917661317011,-7.169067905541901,0.773394175327772,0.7607697675272701,0.8975724411472987,1
19990907,-0.5540597468725327,1438238.691,-20.87615299375426,-12.073364836895832,-7.151918603586278,0.1840302580727836,0.3974577357730288,0.8538930710478577,1
19990908,-1.2883424635534626,2193635.853,-22.77429917381918,-14.075584839670984,-9.230056565728669,-2.5408183294373883,-2.0358309095126788,-1.229457004692996,1
19990909,1.8299102442854325,1862626.601,-22.62333425527741,-13.866578041077085,-8.890062632715333,-2.191743544904617,-1.8031441266215782,-1.1298870469834594,1
19990910,0.5151922194072662,1362892.563,-26.10523396187921,-17.677595939673235,-12.77634366551614,-6.405641609848193,-5.762161426895431,-4.799959192695511,0
19990913,0.4871969181962331,839330.926,-24.0785541843156,-15.345355505586667,-10.227603758127213,-3.8204430964458447,-2.8055221461067923,-1.3889034147361927,0
19990914,0.24565481536267722,1094349.402,-23.13204298519029,-14.245651293429859,-8.971132477503659,-2.6418898691602006,-1.3212531037033268,0.39304770458026794,0
19990915,0.0,1423640.942,-20.299780873590034,-11.044999726661475,-5.551478761594124,0.8252091039961897,2.164294695409727,3.4630172932193775,0
19990916,-0.26064696299744444,643772.844,-18.42373004421689,-8.901449383290698,-3.2470393297649727,2.9829648592040905,3.9976727949732305,4.839097044449602,1
19990917,-1.0747029332742477,785878.741,-18.909224533510603,-9.399109953928152,-3.7871940466627994,2.155314886112896,2.8261732635330463,2.262969836301683,1
19990920,0.5123214220132912,2557703.337,-19.163093576701307,-9.68898325314926,-4.06411546512912,1.506941128943407,2.25311249035956,0.6239670939072253,0
19990921,-1.0303802846823766,1904056.748,-21.852478135401167,-12.708158062460207,-7.152184689469607,-2.018536222647125,-1.0804829686282629,-3.0925571843353783,0
19990922,0.2613281067712023,2343899.522,-17.39870735918614,-7.802409818470333,-1.8261925428158232,3.1564235381959094,3.834709972467226,1.6870595921415013,0
19990923,1.938486863889654,851136.915,-16.080086754146123,-6.381626474678616,-0.20912763360802256,4.387186497762556,4.649530278805327,2.750021286458974,0
19990924,0.27013728762868155,2179897.912,-14.250126868047577,-4.379998263403193,2.006323142082546,6.157345322283421,5.3710046212771605,3.883416464867672,0
19990927,3.879961755543901,1586570.443,-8.458917537961728,1.9852234524873815,8.81887960192864,12.5693694805128,10.488644892000517,8.304598587422483,0
19990928,1.150797958962111,2183762.192,-11.945749647161003,-1.9600793517632435,4.645402236456408,7.736451476002018,4.860690281382951,1.6742827252001178,0
19990929,1.230794271865476,2878836.349,-5.546389159286662,5.089949975532047,12.119012362903037,14.603524648121791,10.69419122177867,6.2331776476345535,1
19990930,0.0,1218209.058,-9.03274999593635,1.1167396092390909,7.833333333333337,9.49118492059624,5.485047788559989,0.6339908323986859,1
19991001,-0.564688673698836,779655.104,-9.347972474710229,0.6412347993687999,7.347704777932893,8.225811828358912,3.9482648197946224,-0.8754391742412937,1
19991004,-1.176451573147892,884409.997,-9.194697381420427,0.7306152177031217,7.436174017047768,7.724592545301379,2.945826253679588,-0.5272111248719552,0
19991005,-0.282344336849427,1352159.403,-9.078178065835218,0.8171762333749845,7.41829995373392,7.209331808640251,1.5340641623717353,-0.997630125888199,0
19991006,0.9155481805936869,836754.147,-6.7860420800427,3.3052427288921904,10.036528820629108,8.995105696675282,2.8962875297165103,1.8120198544640598,1
19991007,1.2119124742597513,938290.32,-6.149132244863108,3.9774442974976,10.743573388495644,8.797930997884604,2.496329508669225,1.919581121760409,0
19991008,-2.325349201753255,1803593.684,-9.827075491478384,-0.12105294687344398,6.389941791387507,3.5235080922951014,-1.9998801881046995,-1.9719240791956811,0
19991011,0.5887947823724025,683415.0,-4.775973065008611,5.439742278519945,12.11380276112104,8.169843595461119,3.140256394321873,2.5613099683272753,1
19991012,1.1904567199574765,1124776.0,-7.4782817802674035,2.405251052868285,8.785629881015673,4.171428425399671,-0.2619393220754772,-0.7048288833462757,0
19991013,-1.011636284679377,1175370.858,-10.55403519507308,-1.0001302790142412,5.063787368857382,0.16400844839668596,-3.0383829610840665,-3.208614206334314,0
19991014,0.2865385245364694,792941.586,-7.120396342462147,2.7672107383869338,8.967759041472839,3.3955531759811155,0.49572495577541165,0.7192434318286135,0
19991015,0.0,1753731.667,-8.119285884096525,1.6723938917242842,7.614144735178234,1.6971355444387732,-0.7044749846989633,-0.7336607671257752,0
19991018,-0.300801348553288,1131640.357,-2.2843481168201256,8.114621654686914,14.03169272249947,7.217963796332337,4.878066872934546,5.0761893908934095,1
19991019,2.199935261344801,1060256.6,-2.5061030116336322,7.852375501349419,13.192914761485214,5.842052686975734,3.9529701537650253,3.7898051623718296,1
19991020,1.1831245973653215,1388881.386,-7.631342352350334,2.1970163184352116,6.800178554218092,-0.2531665474614335,-1.4128508311394572,-2.3189526171888937,1
19991021,-0.5873544896874889,441166.164,-11.934777568468315,-2.539277399410728,1.683390812925649,-5.12422837269961,-5.407013476307794,-5.858976959860901,1
19991022,-0.8855671649252682,893479.611,-8.765654151877207,0.9993251012348044,5.0759206119082085,-1.9858471229315748,-2.1109533569964625,-2.3314702794580926,1
19991025,-0.2674818494459349,409868.867,-12.710707393962542,-3.362792319449763,0.3016832250668583,-5.999804165074538,-5.542835307604138,-4.4559228123806,0
19991026,1.7667703597351752,853607.853999999,-8.811169936986497,0.9277119725612062,4.508496849325973,-1.9420963946717793,-1.1679827709978432,1.115797240169099,0
19991027,-0.8885484335097721,715769.783,-8.199724872838877,1.5591598595086749,4.929284097870662,-1.1344433337310575,-0.7717096285482509,1.9177085035749517,0
19991028,0.0,1079978.48,-7.019195592957208,2.796182389075725,5.978772338299367,0.042152998645633766,0.4922009343661185,2.120067566539341,0
19991029,0.5870958472250326,767646.454,-3.795773392329528,6.251164385788447,9.290398497336664,3.2283507095385944,3.5176249361567464,4.589038150742477,1
19991101,0.28989711657013223,423159.408,-4.867206813307471,4.967237895914685,7.677134598050062,1.8527047048706544,2.629236300340879,1.6336811131717797,0
19991102,0.0,1927369.176,-6.171559495360985,3.432506729574672,5.8345458647184145,0.2966423071544408,1.590445790302684,-0.3428842084417523,0
19991103,1.0000767206870544,3045502.998,3.7484024045166042,14.221324514967273,16.484867972723507,10.401283040666495,11.163221005221509,7.64217020258773,0
19991104,0.30566078532654434,861967.617,0.4735263251580049,10.491873616527293,12.355431403233078,6.610616115607278,6.291359486131687,2.6592379119840985,0
19991105,0.635606210274611,5138792.726,4.498515442801143,14.775239743214176,16.32640047959996,10.159707698351603,9.157895573464852,5.0848042655330525,0
19991108,-0.38079798462812764,1793818.264,7.355415728764555,17.76851797856334,18.970896070724606,12.6199426178841,9.918440419402602,5.429794380751326,1
19991109,0.6421821576815784,2148380.416,5.603756748418087,15.671367667923347,16.519505752571177,10.141775560834123,6.59177791209937,1.2091926443246717,1
19991110,0.0,1152863.948,1.5893325202705282,11.118643581857814,11.615825613463608,5.305968182484819,1.4813769284971523,-2.2429065598952014,0
19991111,0.35341806998673236,982012.849,-0.22876623980918395,8.979820758820836,9.117636492309433,3.054041799856725,-1.0802408350448691,-3.886906217604253,0
19991112,-0.9774397122375125,1249542.622,1.7412365097551323,10.973683891321595,10.728580738571255,4.565224582873406,0.2879720000573493,-1.481553361658211,1
19991115,-0.3047293472107395,667322.956,0.5057532770108693,9.514037799939018,8.951280320515616,3.1742422592866895,-1.493108478857276,-1.4016679005356398,0
19991116,-0.8973253357356129,907842.057,-1.2621959625168613,7.475010712976618,6.607862309664327,1.2860915107273858,-3.7787153190757232,-1.854450987998264,1
19991117,1.6572064836205342,1619110.048,2.66364025919386,11.600737350312423,10.260135236397247,4.748915677630702,0.11918387465266309,1.822971537301033,1
19991118,-3.5715488791187764,1462194.081,-5.4880521339157236,2.6697909723150612,1.098454418041069,-3.9643549458929206,-7.285743305387442,-5.23811516785402,0
19991119,-2.4534321227631164,2359530.932,-2.5143145799608204,5.80828413321005,3.699531612722709,-1.3028276791321167,-3.7292063081342537,-1.4328464335564306,0
19991122,-0.30675451747811233,1297774.869,1.6400527806272664,10.208756367430317,7.532012502520646,2.0986984577886303,0.9100384018517156,2.566479917935772,0
19991123,0.675282156359438,4629245.216,3.333966224756293,11.93150630014642,8.734168898490504,3.1584195903095247,2.8259734185602214,3.376611228347589,1
19991124,0.3625694249400241,3146683.676,3.0715081045257144,11.518559757902205,7.9595933804991965,2.301999460475385,2.4392396477325935,3.055507758164194,1
19991126,-0.3027751867185733,619305.775,0.549156601213301,8.690583886473384,4.9097431280420984,-0.6132983017320246,-0.14635576841917985,-0.7470690972364897,0
19991129,-1.2659010984240076,2267997.644,0.9339550861807426,8.991756393001356,4.877178396214114,-0.4861448790865501,0.31385403551424945,-1.083619155125253,0
19991130,-0.3190992284636363,1812254.917,6.02975429359416,14.358092014541832,9.635727717186922,3.9871505578538113,4.8590379158262005,3.06212178194128,0
19991201,0.6440195472647325,1486416.049,7.116649579494511,15.39258957532913,10.095294641531849,4.355807855036327,5.104611465319969,3.3923272268267377,0
19991202,-1.3333028456446552,1442043.415,6.494852915956914,14.600714555203687,8.940843975442156,3.621371488675703,4.133387448980778,2.133398881864024,0
19991203,1.3981771663833353,1010952.8,11.720636720913754,20.084373793589688,13.707027812479785,8.17389333953575,7.455226439479874,4.944070515510396,0
19991206,-2.1864643217914916,1027458.464,14.965720477428079,23.415233342501725,16.4214139555307,10.854450325064983,8.820503206247,5.2359449948875385,0
19991207,-6.400961024402296,10204909.2,20.670074393955318,29.342581122032268,21.667941732717686,15.794068418620357,12.39733129322766,7.72946334605811,1
19991208,0.46488787035521234,4878342.144,32.6520778324212,41.91178944821256,32.901891008988905,26.12222878575444,20.810137573216984,13.718490893692122,1
19991209,2.7511057774729992,2229625.535,27.795148979941757,36.47464563689356,27.45990879478829,20.3039396536945,14.049950282873327,5.57904337390709,0
19991210,0.8223483502865102,1972172.211,26.316663774097638,34.62975341752521,25.339417671608473,17.66920851174611,10.221403564910608,1.7583746654337231,1
19991213,1.210918073461182,2512589.462,27.2575082932108,35.39032604478066,25.59305884217488,17.374146769336715,8.476768079745979,0.38241675365200584,0
19991214,0.8094139757389407,1444616.277,24.329886916965716,32.00825965316936,22.05691792670425,13.539898075773104,4.265293973176165,-2.5529109003929458,0
19991215,0.4426986584807001,3253870.538,26.2843203321393,33.74140025653477,23.3024669094617,13.991148738613921,4.130290350660745,-0.06326590935591607,1
19991216,0.7439696989833201,3237790.52,23.785281414047482,30.822622101136343,20.286947969964796,10.743923184264753,0.4401355571798788,-1.4259552129709594,1
19991217,1.8364643774676708,2043555.753,18.297079639387068,24.83032801354272,14.501480118409466,4.603028559745085,-4.6149850718216365,-4.537963037042965,0
19991220,0.0,2057489.706,16.180577205579784,22.40979027257831,11.938623116655714,1.7888060576282394,-6.445632736333066,-4.514264906509326,0
19991221,0.0,1151577.107,17.066123085970215,23.07638276323961,12.405642382707978,1.8317010833917644,-5.439689684029578,-2.6143391712341946,0
19991222,-0.35419798642430816,1286198.95,17.918014998051245,23.6990911575783,12.726000840255328,1.8712574471423642,-3.660020550822787,-0.5903299773738544,1
19991223,-1.1342868697624207,2260280.714,19.241384385414378,24.824122185079606,13.411368720660569,2.2627250528557297,-1.8984683351847924,1.2776756781660916,1
19991227,-0.3528221993004126,1099271.041,17.4790784506087,22.751399057291383,11.280061132309573,-0.06757591729989301,-2.641109965020429,-0.07051400066076523,1
19991228,2.224874770229475,1852768.825,20.076615096664778,25.164979749256926,13.207493419475247,1.2177257809619697,0.09024535496161157,1.4792968055129398,1
19991229,1.1136744597491464,685758.698,17.05021964379508,21.64908888034439,10.016327525589483,-1.846490599798466,-1.8464780343639642,-1.0786168974937,0
19991230,2.5507737695058004,949857.931,15.761616484217067,19.86195797921455,8.485757993381347,-3.3275630454692915,-2.0927628660228494,-1.8087304911041133,0
19991231,-1.4592703272940308,495400.877,16.553256296474274,20.258949465522374,8.778860665400204,-3.1230712628488773,-0.8230029358101145,-0.6770884171903819,0
20000103,-2.107041620786212,2064778.539,13.70476391611876,17.041247231913776,5.587671731216686,-5.58656571748064,-2.8644657074703375,-2.471537847399403,0
20000104,-3.2258689100919677,2682796.929,28.754585021180784,32.09846057248283,18.85416029906189,6.354816536917331,8.954818473130194,9.032239326972412,1
20000105,-1.6130036055049388,1915579.72,28.70072511171259,31.58442510382942,17.958692281840666,6.012881347493516,7.94836120327331,7.019324787258608,1
20000106,0.0,2110223.656,32.39292063740598,34.87464823816607,20.54983737465035,9.110264969005117,9.853943219910754,7.2377319279466485,1
20000107,1.5384250073873973,1454048.264,22.67694657858081,24.5724663873528,11.090408522943134,1.3107283443792748,1.5014880324201287,-1.6984940267634627,0
20000110,-0.7500150726501728,1035818.42,24.5806708334171,26.0716573886131,12.185054629983174,2.953180999082255,2.462549488534748,-2.112448669252469,1
20000111,-0.3736064838544331,1485345.149,24.092147589911157,25.158676640184535,11.220469203827076,2.6837332350931287,1.7248232743892054,-1.7807908337604668,1
20000112,-0.6086755829555226,1070296.857,21.203405610298997,21.82301336139397,8.13259687238802,0.42579256263114446,-1.0036627457423184,-2.9075603296862154,1
20000113,0.36508320773429054,2288021.196,20.978948169898416,21.163537753898794,7.384510059636733,0.4422973300117981,-1.6584409059790348,-1.3729731699634702,1
20000114,1.1342514821660956,2290591.652,18.746544806063316,18.51111959908383,5.132429832640713,-1.2228940211316506,-3.686758038699183,-2.5658942753450145,1
20000118,1.4706308079784707,1957645.538,17.009311645598622,16.390639769713648,3.2814022598172823,-2.6309111894563584,-5.413429260820466,-2.7876031008610496,0
20000119,1.4654569079912672,864667.690999999,16.609922437645345,15.604578737579859,2.7087347954455527,-3.0023429249436426,-4.815137201584358,-1.9227787992885943,0
20000120,-0.7563140271605768,2230890.504,15.74567447128971,14.385534685138865,1.7974009485043827,-3.689047387878562,-4.535382202472079,-1.7568990626983687,0
20000121,2.6666303559873095,4072990.73400001,20.592806854418825,18.7679916174203,5.793086187287848,0.21457666286701943,0.3462352957958577,2.4242046988612853,0
20000124,-0.8058846158948257,2770960.16200001,23.358772534921677,21.044028494488167,7.813995197856262,2.330837191409196,2.59224228274277,4.005040924346335,0
20000125,0.0,2780802.837,25.288305416581895,22.446802318139127,9.020830105086967,3.5989096499749915,4.150161625661742,4.231749235663544,0
20000126,0.0,2177397.162,26.77507746144658,23.404751059639878,9.867470010964583,4.563529296246376,5.194240032293809,3.747552054637598,0
20000127,0.0,1276139.55,25.213700924479937,21.460764511612915,8.07771775672472,2.9508372330548966,3.602022240876822,0.8564341026777573,0
20000128,0.0,1179422.739,28.732064458191985,24.408781236834518,10.56392602940197,5.308723585888833,5.90671356349363,2.357480210204224,1
20000131,1.241076270286286,1452881.167,29.748288628498905,24.898776813117394,10.984908624361982,5.618861005048168,5.865482985515181,2.155503502406679,1
20000201,-0.8187057281104706,1418218.202,24.99374315331059,19.90535702495596,6.361168339964976,1.308884897466414,1.3602156985071545,-1.5113178386492236,1
20000202,0.7440669647002667,2128182.665,22.97037926322911,17.486662775426808,4.190419590623859,-0.05713489778862395,-0.7872597269941575,-2.4921799344679827,0
20000203,0.0,1780689.37,19.226911932351864,13.477889804142574,0.7096621452963016,-2.7138322538143544,-4.107035787534206,-4.521962228415424,0
20000204,-0.8030292016626266,1256239.739,22.390801377150147,16.060827215235875,3.0729849927640065,0.2876089527975634,-1.692440873076197,-1.0006674288131068,0
20000207,1.5932783102494616,1625223.0,26.204254788153854,19.262550663604568,5.900677514905867,3.3144975643284393,1.1599033368427265,2.6385441612070952,0
20000208,0.38386559775703993,1216520.0,26.611471612564074,19.249717987470962,5.776971897314566,3.6021077014061924,1.388281968721231,2.712659350768815,0
20000209,0.8387770090062252,1993165.337,27.609680171399887,19.754777826247803,6.12048515436479,4.2999469897347575,2.1161173293870137,2.7613102370552833,1
20000210,0.0,1925762.965,31.2307728920867,22.70622769328693,8.72762792970971,6.899160869762884,4.555201300325077,3.6787321830457422,1
20000211,1.2064053603524658,1548099.281,25.38316752052455,16.795769701564087,3.6029268915634414,1.9968997555942063,0.1714916088257737,-1.4221454180371202,0
20000214,0.44994994444383746,1105174.125,26.796519351148017,17.74843645144607,4.462307066084348,2.8598843221597448,1.5552563834585609,-0.38562030385371726,1
20000215,0.0,1335837.853,25.16478641326722,15.892056608669508,2.9358906953269637,1.222293773290886,0.2476799113129047,-1.434888753938148,1
20000216,1.1734852339635409,1304811.881,21.680859991938014,12.372421312786209,-0.004794914324602382,-1.797432051121084,-2.439802546802622,-3.2613347254620875,0
20000217,0.75280119095081,2433736.749,23.49615947894563,13.829188765435557,1.4895691125993655,-0.6492977390459321,-1.342517830031778,-0.6399078597115797,0
20000218,0.8095299636670821,1412440.763,22.48840197772595,12.628743376603268,0.8592315860578517,-1.5286140063606102,-2.1606162873271813,-0.9962441327064185,0
20000222,-0.38239770452276445,687069.572,25.296029555360423,14.994310402199456,3.2488667172166315,0.6532059219821574,0.14650850712153982,1.5040612709132108,0
20000223,-0.38858954744007407,1495676.703,27.21439430475179,16.492183862169842,4.876513337324539,2.140513093416714,1.64503370362978,2.746097474445106,0
20000224,1.2880492415175795,2582664.134,33.01598637531426,21.505601759371633,9.659049202349495,6.599972147150092,5.891487037544782,5.59998955518129,0
20000225,0.0,2833012.72500001,39.357870306959455,26.96201585779719,14.760309851009746,11.184190902311707,10.376934666484019,8.10811304387527,1
20000228,0.8608065917400586,1669423.141,40.3634874025683,27.535414639237853,15.484037931976626,11.603252277115859,10.028657737282053,5.997126551462653,1
20000229,0.0,4572192.07400001,37.704732608023676,24.831011889951927,13.180282433481882,9.24248867174837,7.124803027904078,2.0155768172325383,1
20000301,1.639247655060652,3284496.82900001,28.006689303428505,15.805585761289692,5.103427084137206,1.4425112774570261,-0.6492728407966758,-5.324671498025129,1
20000302,2.3671255530731137,4602573.60600001,24.783610828185935,12.618984645376038,2.35257315897841,-1.1836928308581813,-3.422961295833887,-6.50036141411487,1
20000303,0.0,3121020.269,9.84896044921229,-0.9762531327565867,-9.790734876274948,-12.670416531551787,-13.938009091774864,-13.509832545950115,0
20000306,-1.0398305021891652,1020440.057,12.584004138555077,1.3315022163766976,-7.45141647856925,-10.127117177475775,-11.02830979334419,-7.417680085243348,1
20000307,3.9564298272627787,2118339.164,11.700991837340654,0.3331059452575198,-8.058580239567224,-10.295269142006719,-10.68802887664973,-4.38067217714676,1
20000308,-0.6398676214658647,3585986.31100001,3.884363926849463,-6.791541468146434,-14.29218909588884,-15.730603977062014,-15.162591652164,-7.327927876522796,1
20000309,1.3333713731419912,1439829.907,3.8867222047873144,-6.9196062879803915,-14.062806767281966,-14.863941114376193,-13.029265926792394,-3.9999543522296004,0
20000310,-1.337650205158263,2550139.069,4.224054692079434,-6.685833089097307,-13.609262804073847,-13.619623754396232,-10.272910866060952,-2.6859933689918,0
20000313,-1.3470202767824597,835567.224,4.949787063809414,-6.107791596917692,-12.859538204003684,-12.257532891551262,-7.155163270294068,-0.6573468173706053,1
20000314,0.32863998386696974,1411584.67,6.719490590438158,-4.668680949550329,-11.253240380861257,-10.030202518674324,-3.353487886749945,1.9177192408568693,0
20000315,1.0236385687736775,1314869.011,4.927652998169259,-6.454276939252679,-12.624238525425499,-10.775845173369465,-3.184254942379243,0.01079091902659664,0
20000316,0.0,1869273.91,6.350748265771698,-5.345784563030557,-11.121162260199679,-8.978651695897668,-0.39865048053550284,0.8957452974832537,1
20000317,0.32090324589684743,755113.389,4.1723426738350184,-7.468791214829998,-12.583906524765492,-10.093666425483553,-1.920862946951923,-1.155732524912066,0
20000320,-1.3470202767824597,1284698.789,4.862320093705782,-6.976910200185353,-11.591439204238865,-8.790391009412064,-0.5603438337276078,-0.4633408500846308,1
20000321,0.7122682490160207,1774269.945,6.596452259268008,-5.566235084868372,-9.867343409437558,-6.539789121699943,1.572524149704126,1.2273290585513825,1
20000322,2.683801403060639,4029980.29200001,4.376216881750579,-7.624512443319377,-11.420288789756814,-7.58994817772099,-0.5636476820096776,-0.7622423242843468,0
20000323,0.0,1490754.125,2.298677078558835,-9.497135565943916,-12.83260826231842,-8.271006882074524,-2.368363854637446,-1.9683566470974494,0
20000324,-0.3156677279018638,1953366.33,2.2552004090279154,-9.584088905005757,-12.559965043431061,-6.971008796577322,-2.205214429945551,-1.6420577977136201,0
20000327,-0.6486296426522532,1567997.875,4.960647912541438,-7.273508198086474,-9.974052501064083,-3.224318522493867,0.4054166589559041,0.9513620297203851,1
20000328,1.0270740418601965,1970698.536,4.897372402242931,-7.2986530062734785,-9.784864999907485,-2.059451163091962,0.5405439791253932,1.2216166700594042,1
20000329,0.0,2831086.657,0.09659132312707237,-11.518993770688004,-13.635654806462954,-5.441119642096131,-3.601595640144077,-2.6005887042103644,1
20000330,0.2769891281767061,5951041.43400001,-10.297351786085237,-20.594165421864325,-22.196826495988617,-13.890302412773165,-12.094186196048959,-10.300414494445377,1
20000331,0.0,3046131.79000001,-15.371900475701874,-24.928956254080763,-26.139022479246343,-17.67698442309485,-15.26198115847402,-11.98821005503215,1
20000403,0.0,2308776.228,-11.741017536010556,-21.569424316990368,-22.483200248986076,-13.093685869068338,-10.07774006244102,-5.0458581752044775,1
20000404,2.9757236313978037,4697793.524,-16.224928721038562,-25.42986427009419,-25.851123393339936,-16.312455594821756,-12.560801646105693,-5.872500622825869,0
20000405,1.671353730683494,2125400.905,-14.56712126484887,-23.85702918520327,-23.813306872583976,-13.815027134808721,-9.058981762774978,-1.089718870213783,1
20000406,1.6672452364421841,1162091.82,-12.383498707860833,-21.81000829283344,-21.304869628943926,-10.865010028542772,-5.32649656715265,1.9110159685258108,1
20000407,-0.2586095823593314,1223715.063,-16.32229426273259,-25.220224005595522,-24.258808371219807,-13.948268880340157,-7.8149607023873,-2.468847208673098,0
20000410,-0.2961044605827931,1839532.094,-17.599724269699554,-26.270199395113814,-24.783693427748727,-14.259367586069507,-7.1265190068275945,-2.6578771030660766,0
20000411,0.26627866061834154,1713288.524,-13.410616910596943,-22.423986952345615,-20.367065133662408,-9.008858520441626,-0.6844502772150943,1.6176428632563948,1
20000412,2.2696904801127458,3537160.143,-16.595718704812132,-25.24066589790052,-22.723037358373176,-11.40314919554115,-2.712005564402477,-1.668405542437718,1
20000413,-1.2746468349200453,2054297.313,-19.79997582566347,-28.027818068338632,-25.099179830691764,-13.661994426716607,-5.439049904621264,-3.7829759926861737,0
20000414,0.0,2154950.423,-20.528130655714907,-28.555078831964348,-25.214838855631395,-13.341774850341103,-5.730979395795641,-3.672212167617994,0
20000417,1.9140178579724374,1378081.0,-15.075944233324362,-23.542889795311574,-19.547734304589028,-6.492854952753506,1.1107807520417763,2.3406765960214293,1
20000418,-0.5255860143529081,1439185.0,-14.31813459124212,-22.75002248496316,-18.25162172796945,-4.709391219621873,1.7993591785493586,3.490041035057819,1
20000419,-0.5056821760529839,2212648.81,-17.6308259175612,-25.639226360258032,-20.801896758055392,-7.3982562063039286,-1.7967013685811113,-0.2695771885150519,1
20000420,4.790413688463162,2074598.455,-16.26082755973161,-24.304816006434717,-18.873059978428987,-4.991220773997783,0.2782297131784243,0.5129517576732533,0
20000424,-1.0500996248361945,2139136.751,-17.698406900141773,-25.459276777540417,-19.601453984095947,-5.691710495611142,-1.2848911306970305,-1.9321833096986116,0
20000425,1.0744682806669343,1794865.157,-15.644003566242008,-23.463032408683965,-17.018447030276292,-2.39402378720197,0.9419290795786678,0.6446809684001573,1
20000426,0.8063638342645568,1508508.201,-16.671365013424257,-24.263025179595086,-17.42902728394168,-2.59887707713519,0.0764639721355383,-0.04226834046875628,1
20000427,-0.8019412571263519,2231881.091,-17.0393713466118,-24.430816554809827,-17.209872266724414,-2.218192971061548,-0.32898535036443277,-0.6411921772389269,1
20000428,-0.24931660537633868,2340226.772,-18.016890754805996,-25.129081001184257,-17.626956467539884,-2.9820046835905245,-1.7458395291477877,-1.4082826537971855,1
20000501,1.5018871198646617,4569757.911,-20.01057134180727,-26.714395037091656,-19.026600147499025,-5.114528653854483,-4.23061906207974,-3.264240163116568,1
20000502,0.9701486344058451,3901519.804,-23.373296430616495,-29.485581383768896,-21.794970829149268,-8.508718059370777,-7.328813165473005,-5.530760101911249,1
20000503,0.6756865199736863,3923102.89,-25.774050267225157,-31.400345065562448,-23.555573210072698,-10.879917184265002,-8.955976054054906,-6.346156932607894,1
20000504,0.0,4288743.169,-24.587247630987612,-30.00780552932364,-21.62394574880329,-8.91770327916898,-6.685743593083454,-3.039988277052325,1
20000505,-0.9029589269452135,2713775.316,-28.36724304258567,-33.21235124330497,-24.76359763532808,-12.65581829688055,-9.981709293531106,-5.4168274499513736,1
20000508,-0.8810041941823669,3494421.93,-29.965155154627503,-34.400371979548666,-25.582482323441507,-13.870469793604093,-10.560153008591682,-5.07383116345264,1
20000509,-0.6529091135841807,3420908.572,-31.634874516737195,-35.63058402353408,-26.454562660934776,-15.139018288791245,-10.844673655484073,-5.197596707577406,0
20000510,-0.41976879045230975,1536928.997,-30.126318231134697,-33.90857720079313,-23.978778106176808,-12.378951700400325,-7.3141531669722095,-1.9535336151745277,1
20000511,0.8704119404760051,2380189.29,-30.433271886660606,-33.93061605244772,-23.540642514160005,-12.018857686532794,-6.166619590586768,-0.8623842300087627,1
20000512,0.8548007656676878,1988905.442,-31.465145681429608,-34.646005084968664,-23.915145316130186,-12.678521852214459,-5.975934070751199,-1.4905679676198538,1
20000515,0.0,3056551.184,-32.04779973106617,-34.90642766258929,-23.912132384835612,-12.748185419739174,-5.293802955380123,-1.7249356583094886,0
20000516,-0.20242329602961504,2869775.654,-31.904618142910827,-34.47772114745092,-23.08181805037448,-11.63858043434257,-4.005017205980168,-1.434169052369813,1
20000517,0.24903660152620727,3742739.948,-28.145401200249776,-30.57078503647968,-18.212176138181043,-5.980343624815325,1.635340350022095,3.477678095441185,1
20000518,-2.0736905783542743,3677562.481,-33.47753126714593,-35.43048704998524,-23.69057132004334,-12.068836960650541,-4.766463611935688,-3.351106484151895,1
20000519,0.0,4995663.91700001,-34.13293071935398,-35.74637612670526,-23.826509976162846,-11.928273091811278,-4.916986927786623,-3.5381846232964724,1
20000522,0.41912535156896547,2373137.319,-34.53794394198423,-35.81365948822589,-23.645662604091978,-11.479519384547485,-4.839312303534977,-3.3876082280924265,1
20000523,1.1860063582547673,4385122.363,-34.835201299057225,-35.75552510414383,-23.298821530366133,-10.745279269896935,-4.757865599649193,-2.930141416356071,0
20000524,0.0,2403054.415,-34.73018389607544,-35.30303250383689,-22.4675742709932,-9.52213741504055,-3.9146431703573827,-0.9231802236351607,0
20000525,2.0082906000650422,3496770.922,-33.935528473851406,-34.22026837184519,-20.889575850686136,-7.44942941571337,-2.2600535636431447,0.3954297894132249,0
20000526,1.2284384929641368,3111043.68,-32.17541633567863,-32.095984878574676,-18.134525363141144,-4.128780356332259,0.46456536541081683,2.4825522015433545,1
20000530,0.0,2939654.77,-31.771578669933902,-31.316953498974225,-17.024371723273276,-2.81855482106222,1.0464155459311764,2.2596592204239725,1
20000531,0.3851117579219116,3691023.162,-34.123114256686264,-33.292470069745725,-19.227336756548937,-5.482213465868516,-2.117222252732177,-1.4908836289746763,1
20000601,1.1684409171307757,2496228.434,-36.75529677873267,-35.602943787274036,-21.75391332364562,-8.563481782973783,-4.877270963881551,-4.8372270404976065,0
20000602,0.5932423695033455,3301021.542,-35.746914139831894,-34.21620684828325,-19.84021116762093,-6.401851716070207,-3.0471327729748157,-2.7943715296987865,0
20000605,-0.19579871891695666,1852137.368,-32.47092598808427,-30.511261223462267,-15.147630835501072,-1.3382492797404322,1.6493944225336497,2.2581186540236753,1
20000606,-0.6305322287789298,2686208.173,-31.399620545846584,-29.063574529051284,-13.196348729005846,0.36009135270087494,2.8111524058102586,3.8036200635497153,1
20000607,0.22318686268889099,2363734.471,-33.86173539729993,-31.261512892965847,-15.64812918901945,-3.07427959102885,-1.025362763967964,0.006279263415092904,1
20000608,0.6067679539156591,2088061.698,-33.73835469647953,-30.795801083855462,-14.828346779147362,-2.6351065427194778,-0.9870046548452838,-0.7539211269912758,1
20000609,0.0,1404435.472,-35.412782229421566,-32.21470945555693,-16.358797325915607,-4.7619347942986385,-3.2862425397162527,-3.385757247844068,1
20000612,0.78898389663636,1589714.95,-34.26411269657164,-30.68318789954952,-14.402880802740494,-2.874767350902269,-1.2685107760364684,-1.1486796320772497,1
20000613,0.7679029685684903,1536929.465,-35.87503068330239,-32.062543399644255,-16.097254582805505,-5.0091557661637065,-3.1203113616823197,-2.2972768979345424,1
20000614,0.18060054501516937,1194368.776,-37.0529738032804,-32.96805491284897,-17.160111059694554,-6.425587433801222,-4.49329014345211,-3.158002982158467,0
20000615,-0.35786962318434246,2521872.958,-37.37066489751918,-32.94880486855784,-17.16056927424548,-6.311486913199086,-4.907087859863115,-2.5728338043263252,1
20000616,0.20978617207597466,3156560.951,-36.87160893804573,-32.042940727387005,-16.052837887254338,-5.337935370461868,-3.9900431761754787,-1.345197692993647,1
20000619,-0.37580993520516276,2205169.021,-39.122896019747,-34.085813637766094,-18.532625732798486,-8.38602283245914,-6.474421474853428,-3.407713668620797,0
20000620,0.0,2207946.787,-36.916342712792094,-31.335343612250462,-15.17026556350111,-4.921951250629954,-2.313011527101772,0.412347458870503,1
20000621,0.0,3428174.424,-36.87727756092281,-30.91812560890963,-14.729010525779543,-4.739561776074071,-1.8179734212922622,0.41682851193622034,0
20000622,2.235056640537936,1832476.81,-36.73412886916322,-30.373738402857782,-14.068172411377763,-4.386441929917273,-1.1475201059582563,0.452742242570503,0
20000623,0.9608184848223783,682343.762,-34.035651666854434,-27.037330779985798,-10.025736682724448,-0.29023344576012267,2.886497518437802,3.875742977742138,0
20000626,0.5746494896673022,633833.956,-35.53185006108481,-28.312086384879393,-11.700626361479738,-2.2898392403508696,0.7803339301758878,0.38111736682548214,0
20000627,-0.4012645111898708,1666645.981,-34.05661459467665,-26.319543165633778,-9.36329617676757,0.12961899670672047,2.8411903300532737,1.7975066162446183,1
20000628,0.0,1048411.515,-34.92817691407774,-26.931411672949405,-10.14019238268553,-1.126478616924456,1.1652151306382563,-0.16378525932664834,1
20000629,0.3591549295774693,1243734.207,-35.75432970550578,-27.49547887323941,-10.853047375160012,-2.4758962868117558,-0.38623559539050506,-1.7673495518565896,0
20000630,-0.3834994323199107,1347377.874,-36.54137000126153,-28.026366847483235,-11.57083385896301,-3.646713763088163,-1.6882805601109978,-2.2550775829443626,0
20000703,0.1798916822423945,507323.735,-35.666669643597594,-26.67167216335692,-9.963128584277959,-2.114460867179961,-0.9099839883644625,-0.8832554015348221,0
20000705,-0.18294819062941967,4511843.774,-34.42689078901274,-24.88237080094974,-7.878981718155965,-0.024749905930879848,0.6037290290770815,1.1408960568826156,0
20000706,3.3902234070296426,6922166.29500001,-26.689257048477316,-15.655743820810716,3.2874300947524158,11.327076874040172,10.959331807249859,10.643997565993457,0
20000707,0.0,3868181.66,-24.018909009110345,-12.241860308176754,7.25785625913845,14.739924267986328,13.076819255426825,11.101413414314084,1
20000710,6.466548894460907,2933458.402,-27.694326276498753,-16.15396911328921,2.3157909733302873,8.638128276726679,6.6731251424663895,2.959881467973564,1
20000711,0.39532364485585947,5417289.40600001,-28.463195509348505,-16.734853899072842,1.4561556534095181,7.063807487232868,4.456816870893755,-0.38167724145694953,1
20000712,3.6820244189584197,3371115.928,-32.55831779038852,-21.20164424514195,-4.129211476645885,0.629390055160895,-1.8048335251399026,-6.72262126803975,0
20000713,-0.8678822863000044,3336200.193,-31.08014457961321,-19.165735845493973,-1.8781997680252276,2.3525207023979604,-0.2586788228630057,-3.515091845817722,1
20000714,0.0,1445778.213,-31.51213434561484,-19.378082457277618,-2.4206002847041463,1.1996337608351382,-1.5890636173468888,-2.203316202073126,0
20000717,0.19078527490732478,2668702.284,-30.256799356354325,-17.585483345328104,-0.5363170973480014,2.5179922056407156,-0.7876512363700506,0.2896405632578892,0
20000718,-0.8227937043282665,2179020.409,-27.671017776840927,-14.194134345137696,3.1134064080944435,5.4020165823496225,1.6594997189432206,3.811270376616088,1
20000719,1.2233172515222797,1015651.714,-29.09490021030062,-15.524529572663642,1.0302393028466277,2.707379764408333,-1.1599521669209512,0.756394925295194,0
20000720,0.1942445545854865,2548523.621,-28.523861319065684,-14.482607162854336,1.734417231773159,2.8779992119615807,-0.12643177592059035,0.841818571438442,0
20000721,1.28166276156195,2864021.107,-23.430868928917242,-8.050090544226217,8.804609255467767,9.19921947181302,6.9330268380478,5.7065775760756265,0
20000724,0.0,2165573.375,-21.254323114281394,-5.1397131582941045,11.663332827439671,11.38431476703597,9.130748216724834,6.17119441493397,0
20000725,1.6033046278793053,2289807.549,-19.16341649357824,-2.322191883124425,14.342147230195964,13.168296420764408,10.81627731491208,6.698561615595862,0
20000726,0.22215897411571425,2707978.527,-17.721538747371262,-0.38643723416028875,16.01808895846179,14.022658634157148,10.668532485808722,5.429691823601035,1
20000727,0.8988263829721957,3525966.146,-19.99370629639011,-2.9090634858498094,12.51508662045884,9.796324867018201,6.062357519515516,0.15075106884349207,1
20000728,0.20374573112814398,1614413.857,-24.290711442389266,-7.875635345896427,6.381374304835482,3.054445789859107,-0.6591645699949908,-5.013740148060054,0
20000731,3.126664346936883,1242349.221,-25.698817292875354,-9.397678613274998,4.168540203520772,0.30013279269427456,-3.166857215898193,-5.688498164336282,0
20000801,0.0,1634265.123,-24.146217021954016,-7.3121173967785325,6.063242593959364,1.5322218845424573,-1.627230495376217,-2.5017728187093953,1
20000802,-0.22673385730974707,2039629.686,-27.357627727891753,-11.058143409164746,1.3177246427904605,-3.332884013189305,-6.081790091453949,-4.345962685690192,1
20000803,1.5629481885677265,2550870.393,-29.710898611824522,-13.749239872189115,-2.1750528654050125,-6.319967446917804,-9.018471205864895,-5.074678638373936,1
20000804,2.0004472544674585,2115409.134,-28.4293395542364,-11.958355865471253,-0.6006085371390637,-4.351989265892783,-6.7427676919636665,-2.2602614405659875,1
20000807,0.5811599691789346,1311724.333,-30.872777226365084,-14.729834402058199,-4.106306565148683,-7.417429575165524,-8.742800799258188,-4.209295947551932,0
20000808,0.0,1857546.674,-31.221412648318697,-14.931434811065813,-4.661344151173273,-7.726277112103339,-7.7655803464387345,-2.8475889912061856,1
20000809,3.4442825170457554,1271166.329,-30.789425454119623,-14.162661349086553,-4.110276895851771,-7.279023317545409,-5.6293264976838575,-1.2862384843595438,1
20000810,1.3214052266639378,2700082.501,-31.649531868807944,-15.00680119964625,-5.41646693923585,-8.422163977288747,-5.394563141637729,-1.9812106686489903,1
20000811,0.9394585109049813,1481427.302,-32.96735209325647,-16.41314991225869,-7.405765856104263,-10.127788919528694,-6.1216470293306715,-2.636625720732002,1
20000814,0.17513244001245531,4591996.64,-33.14634122779686,-16.41943907759425,-7.789404799002804,-10.216079775631059,-5.419009037083209,-2.265752570894384,1
20000815,0.8934779799521209,1968973.451,-33.78756084203536,-17.025825328746986,-8.718769806351578,-10.73351957713634,-5.122422482170447,-2.4963233258056503,1
20000816,0.16896564164851813,2333139.587,-35.08866667468404,-18.453175471720815,-10.49732420958955,-12.14517215253811,-5.986073863841346,-3.2057773020817013,1
20000817,1.0461917173472395,4170622.146,-34.66409251616956,-17.698311854426112,-9.961796505454187,-11.211325900183434,-4.711905106670527,-1.7073317887826918,1
20000818,-0.35431441908169864,1589224.586,-36.65162646635472,-20.010310083392092,-12.741554437962918,-13.182943956549877,-6.562683931724539,-3.657946724631246,0
20000821,2.079559580891484,1559340.216,-35.4217930503759,-18.28266737702006,-11.146273604451535,-10.711714911501808,-4.151838039424618,-1.1318297519682619,0
20000822,1.0409904614862817,1609290.858,-35.957709470089064,-18.858811282465165,-11.951751846588397,-10.546812405331282,-4.33174845459703,-1.331649034159685,1
20000823,0.8447705098294906,2247114.416,-36.03874017488843,-18.90270594190164,-12.180555151529223,-9.68946538593561,-3.769584770858904,-1.1938492328994936,1
20000824,0.0,2612134.297,-37.580975820770604,-20.760927586713848,-14.40574284971103,-10.908417493186171,-5.2951155242414405,-2.712303359985519,1
20000825,0.0,1147358.609,-37.55105603642592,-20.644035704625345,-14.466729780903409,-10.100616490848427,-4.612185555856089,-2.386619781805067,1
20000828,0.0,1119608.276,-37.40940552279784,-20.367246928028056,-14.355459783049,-9.203762884277795,-3.7898906242966928,-1.5494891299455442,1
20000829,0.5013053067470966,2211253.465,-37.16451956834853,-19.950719043975308,-14.178950803438795,-8.091495251384059,-2.9332830715218177,-0.7904982670927435,0
20000830,0.1537270576092272,2654187.105,-38.43631335064591,-21.483235515342507,-15.975809949434764,-9.285443694720003,-4.411417528178737,-2.0632367231979716,0
20000831,0.6572369086272224,924931.089000002,-36.7732959588356,-19.285094765697846,-13.794110707905924,-6.394943207990174,-1.5080497477783203,0.336707523958257,1
20000901,0.4959046080124934,1931403.578,-37.035790104195655,-19.524026299660086,-14.24163369922547,-6.263442358054243,-1.866328634312137,-0.25062684571236926,0
20000905,-0.6498114881348437,1128359.944,-37.118068307828786,-19.526962741184313,-14.338278997560435,-5.971445996895087,-1.716844089598588,-0.4518740297183319,1
20000906,-0.1560426257364738,2715451.697,-36.783915670344655,-19.0330965853875,-13.922778336174646,-5.109313134790835,-1.0588130764831034,-0.03631739403262513,1
20000907,0.0,1306601.406,-37.83642541319279,-20.328792155455105,-15.346984059649833,-6.246893236092276,-2.448157151947272,-1.9105578306765996,0
20000908,-1.2761924474244717,1717728.907,-37.48618030099184,-19.793510645830686,-14.893977439226944,-5.3536899554993775,-1.9318819344964235,-1.1536387552902354,1
20000911,0.0,1555498.343,-36.524199448028135,-18.470437556119844,-13.64818130236705,-3.673449713822976,-0.5934523579994607,0.19621992937846178,1
20000912,0.4781240756178365,2457375.098,-37.77617366283914,-19.99924167047621,-15.398811412590382,-5.269691021055727,-2.5070051362034893,-1.5773254094172469,0
20000913,0.4718305011146977,2195031.044,-38.477006073957156,-20.808868930676372,-16.360084516439905,-6.029368933324141,-3.418308718008452,-2.1631124926524756,0
20000914,-0.3301135070088148,990890.577000003,-36.761807927060616,-18.542524473932406,-14.055799481792244,-3.3173968192018837,-1.010396678266709,0.21357097169371833,1
20000915,0.0,2510528.174,-36.78393632807225,-18.50012140833667,-13.936489950087655,-3.2288951841359776,-1.066396870362858,-0.055362201537832605,1
20000918,0.1526279612260127,2144226.214,-36.32835037318073,-17.84891996774243,-13.118340793340627,-2.578303015214071,-0.4789920059752213,0.5984964522117459,0
20000919,-0.2994650126819728,2544467.546,-37.036177185241975,-18.711277362150167,-13.959311123899637,-3.5871059530660534,-1.630112752307268,-0.7740264722808384,0
20000920,0.4622792232391539,3416034.307,-34.848127824048355,-15.86119544748298,-10.909449272816083,-0.3554114669404411,1.4680934001680133,1.5014741326774468,0
20000921,-0.7785648026509763,3002770.731,-36.076986761181104,-17.44442001748016,-12.611741743835006,-2.290948379866694,-0.7611918690381131,-0.6532008557778387,0
20000922,-0.9899998887640619,2395257.554,-33.39068037464261,-14.038704546212966,-9.005328201648485,1.4316343897039931,2.725224974693816,2.433508715336091,0
20000925,-1.309052697475785,2508819.764,-32.7630949985467,-13.307605026046886,-8.225356048918988,1.976798130882909,3.0896326603617466,2.2885505399423174,1
20000926,0.8347610122914483,1589652.043,-30.555500684136046,-10.538748548366696,-5.298720263076191,4.779150521438164,5.3433328350829585,3.6306354991893746,1
20000927,0.6424698910761393,1507895.995,-33.48392235543053,-14.40724477993213,-9.260819752111882,0.0373860465626085,0.09510966390929151,-1.1554590754353924,1
20000928,1.2695005474788938,1841750.577,-33.93007881527734,-15.083341464207873,-9.85199640073285,-1.0167658633362355,-1.0231350484058004,-2.4781821532724115,0
20000929,0.0,2119678.617,-33.41180271165422,-14.543434870807575,-9.126930000598257,-0.5297134435180825,-0.7742844245756564,-1.711942482039228,1
20001002,0.33015666150795175,1447486.515,-33.21806847492599,-14.400016290624745,-8.73542396350901,-0.5548315277891046,-0.9592462870951218,-1.2926067714696943,0
20001003,0.0,1075421.215,-33.56913840858362,-14.94303923414096,-9.026606072014413,-1.3569258074058042,-2.0005916045929872,-0.9475354290477784,0
20001004,-0.329070214274486,2715877.408,-32.86475728365527,-14.144309196105286,-7.841017952728638,-0.6044500251673754,-1.237044213397694,-0.06570579607388227,0
20001005,-0.5005111842622567,1714313.473,-30.04456768416677,-10.668308822703342,-3.7702142479974103,2.9971407385769986,2.028727432057444,2.9945286431709053,1
20001006,0.3252860723153797,2462924.37,-27.648738214167896,-7.755954413645831,-0.35588148473992826,5.8119418189395295,4.7205838942878176,4.8372701437162355,1
20001009,0.5013053067470966,570157.216,-29.38966078903542,-10.071533060269168,-2.691339964891752,2.749358599270846,1.7293063870009606,1.1863662960796004,1
20001010,0.34210023705468084,4184283.586,-29.22425513150357,-10.012571762406068,-2.427585974452025,2.364227212978456,1.79712163938478,0.13661539844285103,1
20001011,2.021472554076102,5770307.07,-33.395227356454946,-15.449192147781742,-8.040261038892698,-4.065417609599505,-4.228145887058559,-5.630966791221509,1
20001012,-0.8960591529999651,3233949.707,-35.955951817302676,-18.81084035137209,-11.446709916589445,-7.83132530120482,-7.633124471128651,-7.616653906596271,0
20001013,-0.2259761053068871,2471328.38,-35.28015311654491,-18.069044313610284,-10.44085607450119,-6.979900286776848,-6.401913196801861,-4.576674807210962,0
20001016,0.8883833881528435,1767393.0,-34.26200957035855,-16.90172963224826,-8.95265029254151,-5.67397251852079,-4.7913784800139245,-1.72286946809709,1
20001017,0.14639228965875728,2980109.0,-32.86713988017716,-15.25361812972131,-7.013368064600184,-3.972232352175048,-2.8729356603282223,1.38556915863506,1
20001018,0.14121809400804097,4030226.795,-34.92162169632585,-17.957518984033847,-9.8509721936045,-6.943105692446072,-5.591231411728651,-1.2959901097078652,0
20001019,0.0,3064472.971,-34.51153536451575,-17.548001529929284,-9.270565973165896,-6.504388481243292,-4.416764803575222,-1.1396966311360703,1
20001020,0.0,2034948.455,-34.18831642358913,-17.281119465330015,-8.84121951465012,-6.028701271250442,-3.1117452265201386,-1.0052239031313324,1
20001023,0.2768081026599156,1667672.736,-35.391583902846776,-18.935473720438594,-10.511372240523148,-7.592826589311183,-4.083632430306316,-2.4802595997836754,0
20001024,-0.1394998928840043,2124741.902,-34.217106672578836,-17.603351983140474,-8.918397544801907,-5.695232591160703,-1.6753937135369805,-0.30799583493177396,0
20001025,-1.4023133363949924,4997471.966,-29.190562954577054,-11.44671102519468,-2.1097286155226507,1.2099358118571863,5.242601275218689,5.603165618224735,0
20001026,0.16308290531326436,2793602.95,-22.766467891239405,-3.5780795682075732,6.457305359681953,9.642146194248575,12.855866051478495,11.706102550709511,1
20001027,0.0,3394212.563,-24.786690821664095,-6.279353389300909,3.415167536584401,6.194940400781515,8.376547693451105,5.997871657573348,1
20001030,-0.9674469437598313,1556764.745,-25.232588743043898,-7.00302222618747,2.50098696316451,5.0332612162508745,6.444367618686495,2.2900891054879526,1
20001031,0.0,1969896.349,-25.438100105257362,-7.44129965098891,1.9637803999778651,4.201041493546069,5.119494764832985,-0.6129300315771984,1
20001101,9.569239979319157,21126267.804,-26.4677876949033,-8.877934093444775,0.30743693705949326,2.3387847288361527,2.439467740618803,-2.745544096438003,0
20001102,-0.8968203641634224,5983271.604,-31.704971011867038,-15.50380469245406,-6.973095389075093,-4.8441384585962926,-5.271512113617364,-7.409286267878529,0
20001103,0.1466985033631505,1638025.928,-29.106553053357704,-12.468842174259114,-3.681497781315192,-1.1347805504835051,-2.4193288283367447,-2.7705208837284276,0
20001106,0.1479827476341111,1818891.332,-27.929925692648826,-11.213890366375828,-2.3615940006425107,0.405583320606444,-1.9258822352241274,-0.4592204837614098,0
20001107,1.10526541371109,1299116.731,-26.37963241754714,-9.510174013672513,-0.5738165141546817,2.3770706984120102,-0.9796305423997514,1.9241154662152027,1
20001108,0.4758039538187243,2281932.337,-26.315235071717737,-9.670306842819162,-0.7959543313645989,1.9702075167412698,-1.3021862417361685,1.9677243647937208,0
20001109,-0.1463922896587758,1150244.051,-27.808157853607767,-11.693107580098989,-3.1166137014847695,-0.6917686897629507,-2.689241990101596,-1.226152643917687,0
20001110,0.7825282011538719,917976.564000001,-25.115985856367924,-8.619257513131858,0.1697774046327324,2.2799072160509843,0.9690110221303594,1.3475200206664935,0
20001113,0.6283166372450685,1469530.734,-25.034157674745593,-8.737942061801487,-0.05876450735359083,1.7344436634455018,1.041363731481827,0.664051810635779,1
20001114,0.15445876443942,2033882.224,-23.177917052357216,-6.666040433141849,2.04451917862991,3.5939870627091706,3.2562865264852943,2.3112946602180924,1
20001115,1.2420846249635549,3168132.2,-25.377928887475896,-9.523498397053793,-1.1851416156638306,-0.04967808600271378,0.159022865167036,-0.8645841613014402,1
20001116,0.0,3504267.016,-31.037139549055514,-16.500294942108496,-8.883120048750747,-7.889140767824478,-7.540572821450331,-7.5108348567946335,0
20001117,-0.8304494957472233,1726539.331,-31.971891558133912,-17.75467516740621,-10.297047237498964,-9.319007481225135,-8.422433145225758,-6.979413468119831,0
20001120,0.43496514420729143,1579159.306,-30.29624934096197,-15.879479018179717,-8.283200874812042,-7.477812384058109,-5.8687098474936965,-3.3235047157837254,1
20001121,-1.0414352926922783,2974467.856,-27.60475990953704,-12.812551743634298,-5.034277002604838,-4.390434747491071,-2.0827191406013483,1.5385780344486268,1
20001122,0.0,1688787.879,-30.065109020658653,-15.926961983535278,-8.520192606399492,-7.612709692451067,-4.938597002174593,-0.6873252562907755,1
20001124,2.2755514134824386,1286533.081,-29.735926821217827,-15.675166006523778,-8.311140882261569,-6.79454508387697,-4.25583449829138,-0.6008271202236719,1
20001127,0.1321895654619687,1572548.096,-31.817443631931784,-18.213326770730802,-11.19213425209769,-9.152721136267749,-6.248300754699277,-3.595556180565312,0
20001128,0.4166432597419557,1896099.92,-31.577668155347126,-17.94563039529616,-11.03926745688446,-8.470404284403502,-5.096811040578234,-2.901896897178054,0
20001129,-0.4205270038748822,2851615.449,-30.69107973022088,-16.936283787291696,-10.082274149624567,-6.980677468531267,-2.936609447934412,-0.8055617174115043,0
20001130,-0.1636441411418356,3941927.109,-26.645358027516146,-12.168483829571349,-5.050048247664742,-1.5391502442227258,2.9058523919898693,4.043950140763795,1
20001201,0.7312457851455892,2533394.612,-25.467479944842065,-10.893282402794153,-3.8071181970992187,-0.37765095469600146,3.7965395416251533,4.53513301325604,1
20001204,0.993878633055377,2522090.664,-28.29822215260041,-14.37383236130525,-7.605620089651548,-4.220586108835006,-0.6600954354846598,-0.4475827830529627,1
20001205,0.0,3826754.99,-30.695672867383212,-17.324730843773477,-10.779259437855309,-7.266105325630348,-3.9367285810992603,-4.043231914834422,1
20001206,2.5833966178295578,2774619.81,-30.45323931726836,-17.114708551742027,-10.506668024968068,-6.708727703791541,-3.2349645298116547,-3.7907721943358923,0
20001207,0.5239437374653281,4990222.886,-32.56842803478667,-19.68369074366064,-13.303445164575528,-9.192487906413739,-5.861559145788579,-5.155820778188218,0
20001208,1.955579991089445,3557374.084,-28.103516821021334,-14.465343672091995,-7.754324931512084,-3.1922734209853023,0.12664347397456424,1.8043851250793768,1
20001211,0.4159256095340718,1621816.25,-28.841300339369198,-15.432319893941324,-8.864014265641593,-3.991018620956871,-1.3437991606798496,0.8972976505571465,1
20001212,0.0,1823370.11,-31.20160996286605,-18.262169577067638,-11.99043586416236,-6.833552604992206,-4.69459873286424,-2.3156883259170034,1
20001213,0.37401234595256716,3485069.739,-31.760125586610034,-18.916126401992386,-12.790433437767291,-7.098435263514722,-5.3313598716659065,-2.7342784087635725,0
20001214,-2.551144772351362,3547773.821,-32.630690780882766,-19.915291198746424,-13.947279533385595,-7.8550317750500644,-5.7632105858796905,-3.9509880734743557,0
20001215,-0.40270458387192276,2459812.028,-29.734264465275228,-16.4153913601562,-10.255977293065897,-3.9564030480804875,-1.129561499453115,0.6610501957026998,1
20001218,0.2516601960441745,3164929.57,-30.064506284788006,-16.770935486326632,-10.632347738864512,-4.52137544387574,-1.3333064656967637,0.5457712578979537,1
20001219,0.0,4129829.396,-32.46308824478732,-19.605306306887883,-13.642011490542913,-7.646999332945994,-4.456953499881655,-2.5380758720116985,1
20001220,0.0,3111183.543,-33.247932983362276,-20.510130815799506,-14.555023072689554,-8.34344439270139,-5.1547351932602234,-3.2313619237119435,1
20001221,0.11882008693739517,3531140.582,-33.012795358828214,-20.189283358422273,-14.263814420783785,-7.808403666931634,-4.734494190078308,-2.775738714205992,1
20001222,0.25192042789243196,1118464.898,-34.14851350401046,-21.5213015475112,-15.768663415279862,-9.071989674985426,-5.531494190110983,-3.1924812714329023,1
20001226,0.0,3654205.51999999,-34.38334488628209,-21.79991386558931,-16.10010459178442,-9.21603330530546,-5.117040257582919,-2.3305510551465347,1
20001227,-0.5556638348447797,2884675.729,-38.525932953464114,-26.702536410503345,-21.319758932085946,-14.495526791480835,-10.105667847547856,-6.758614891332175,1
20001228,-0.21442717854966575,2525076.699,-38.399726348263265,-26.534536867763574,-21.048903107861054,-13.820517215112735,-9.005370201096884,-5.067870201096891,0
20001229,0.0,2472822.478,-38.54141662446812,-26.690142920845588,-21.168013241529437,-13.290788369825638,-8.396240675378454,-3.6815533100044555,0
20010102,-0.4570661966008643,4282542.965,-36.245393654111645,-23.944048389738633,-18.195641491626947,-9.39113088784719,-4.094057359467737,0.5447355489864146,0
20010103,-1.0457151959222646,5453262.716,-34.57303739248168,-21.960859350111495,-16.052301688435815,-6.6104053838802095,-0.9635234151003459,3.2485664224275115,0
20010104,-0.7692606718181098,7714290.825,-28.71863070736565,-15.043775726607947,-8.702847689842388,1.6375620354093148,7.383779441173812,9.384548269919351,0
20010105,2.156298285630203,3291621.47699999,-23.808363531013185,-9.286678684423515,-2.643817599882274,8.245944007063489,13.46690824810537,12.311180192774621,1
20010108,0.5239437374653281,3457772.233,-25.69258371709719,-11.615095654349004,-5.10981378333835,5.1404106682627475,9.648202823846823,5.449282871551165,1
20010109,1.0151053215077641,3849149.323,-27.648073291990027,-14.027291782150783,-7.492317419623094,2.369560698447885,5.839540604212848,0.028409090909092393,0
20010110,0.39336879980573675,2540645.897,-25.931211231540157,-12.086307145537639,-5.260643252908361,4.632480519193819,7.1350301317851486,-0.1988477075561254,0
20010111,1.274972040086845,2340158.558,-26.108094559329846,-12.417284708668678,-5.457020679371096,4.060305695050532,4.953751014232132,-1.163834126444585,0
20010112,-0.45024321173490844,3499346.772,-24.448574899834277,-10.557729845139582,-3.3271990673533702,5.938297026518778,5.1602428097320345,1.2314687844773318,1
20010116,-2.013502471801374,2416443.028,-22.521148394812638,-8.375248207202244,-0.8829922719118479,8.019842881988028,5.388937832939989,3.0142739111977463,0
20010117,-0.521483984262121,3989114.267,-24.279316246915776,-10.52801920554829,-3.233698624046958,5.28561584457732,1.2418254162313314,-0.20272523173362908,0
20010118,-1.8184687937936674,7521497.286,-18.28196310450218,-3.5876208286899214,4.266944714148386,12.930738436078562,6.909894440804111,5.69952696853314,1
20010119,-1.0126532594776894,4868266.59900001,-15.94053605860046,-0.9720490037827481,7.092438953787869,15.142698740561558,8.30777986566643,6.0521732304325715,1
20010122,0.13504323795100193,1860819.911,-17.123993807302952,-2.510448970536477,5.4739101287251195,12.491764773971378,5.981209698033673,2.656493409407685,1
20010123,0.6886393452716366,2906425.381,-18.361130713598964,-4.106800668747446,3.801838581800777,9.866866217361864,3.47052443627719,0.05778129306956009,1
20010124,0.13019325126370138,3255955.078,-19.88759828200507,-6.035323606677399,1.7665973229302114,6.878234560980011,0.5225336255345604,-2.9608076614790035,1
20010125,0.5464455417870129,1401528.923,-19.207057672598534,-5.351159973912244,2.5915121587626833,6.783401658436597,0.5200316780024137,-1.910369887263599,1
20010126,-0.4023491416250854,2254253.533,-21.50905511100686,-8.165396169564012,-0.3466517514817561,2.491993612932923,-2.955552147515987,-3.4115779122950953,0
20010129,0.12748481564784456,1859115.23,-20.52018585464908,-7.1235692105958135,0.9273154429641991,2.477940573863817,-2.2368576814154264,-1.3844850979356522,0
20010130,0.021603952584020297,2494661.832,-17.782621968401852,-4.042442373804754,4.335293344104,4.493387311904748,0.5553155116379892,1.8907215720163246,0
20010131,0.022515185774233545,3272152.009,-15.91314407802707,-2.0036503343744685,6.457230727959064,5.441968306283221,1.7914902178703673,3.250234732787861,0
20010201,0.7994744781275889,2246580.831,-14.350131380468097,-0.35298039024865496,8.101347866283882,5.9936256143253805,3.2217410344995665,3.986569996593853,1
20010202,0.5552380577014043,3685193.53800001,-13.043790891533954,0.9966892637553113,9.43250433548794,6.61371295128491,4.468754926690849,3.4400126123285433,1
20010205,-2.4443359741673922,1721433.772,-16.92173713062741,-3.657900912401927,4.39171328802613,1.4627764427590066,-0.2089513010175279,-2.0743063117185523,1
20010206,0.9936579031560006,1597262.0,-16.47741686583736,-3.312465890057791,4.706607448670417,1.4425447428345723,0.09950693490412624,-1.8719536292978394,1
20010207,1.73507410934713,2250054.0,-17.684533661269885,-4.843404129411685,2.9844939020443575,-0.6557498312544425,-1.6160738227108247,-2.8765337352405242,0
20010208,-0.7600781228905502,1418365.837,-19.619339915576873,-7.209037234377694,0.32455200842430354,-3.395353128065732,-3.8936340644603726,-3.9570864121972504,1
20010209,-0.2595522608246673,2077570.906,-17.40871874308476,-4.792727004499538,2.8072213616581734,-1.2897396179095653,-1.7651397801873414,-0.32455558014309654,1
20010212,2.231806268624561,1979318.231,-19.348795461889218,-7.161005995763489,0.17778156751515414,-3.9324085376799682,-4.228359602197252,-2.09313179908807,0
20010213,-1.4191709512157256,1749566.745,-17.406800747848582,-5.039541576164186,2.445968857972932,-1.927634653982592,-1.9675015809298737,0.49013408118189783,1
20010214,0.1057727513119833,1806258.852,-18.28842285595472,-6.171555266262596,1.2590031144198741,-3.342644951611242,-2.734044813293041,-0.4285152489049778,0
20010215,-0.02128112364332703,2498925.328,-17.92210882351611,-5.825920408597604,1.5525892788415554,-2.911484109339714,-1.8737350183153714,-0.38224520382336435,0
20010216,1.9604438103105168,2290486.036,-14.714013160364972,-2.222881387752053,5.240556827995327,0.854696241504883,2.186948522509664,2.8982840836556103,0
20010220,-0.06521497816916633,1338656.045,-15.738272866868975,-3.4492248205432348,3.712526826019357,-0.4068304595574583,0.8464071634722112,0.7899800192407304,0
20010221,0.9817365394716735,2694789.174,-15.116804336003064,-2.8129261977697473,4.151360346582727,0.18537714580554057,1.4721864555685218,1.00758149761308,0
20010222,0.4917236055919147,1639166.801,-12.807815641766048,-0.2584884263892161,6.748592012350242,2.5519359234588253,3.7066525629663407,2.454615626518759,0
20010223,0.0,1572245.08,-11.411598579469986,1.2550044693546838,8.17888048703885,3.8074553668494326,4.427511898147021,2.5526055130094365,1
20010226,0.688565024616072,2280255.788,-10.099712241482287,2.6555266274505493,9.389854065323114,4.717233211639513,5.15469467255234,3.0169620922197495,1
20010227,-0.02215575495734987,1346541.91,-11.345246868091406,1.1367395398345574,7.486352536593091,2.772094344984362,2.759691938676714,0.5608295885291024,0
20010228,0.0,1561162.227,-11.41415567884336,0.9752527799793177,6.988082714892982,2.3798544563729287,1.998991281792643,-0.37870163556450287,0
20010301,-0.5747098278810218,2264056.837,-9.48132315546563,3.1225312709758963,8.959750714100231,4.313630862848655,3.199854975184091,1.048196253852226,1
20010302,1.4659292272995759,3212263.683,-9.650344393296653,2.901592849506721,8.380565576291295,3.9156858820715414,2.040975724055799,0.472045808457782,1
20010305,1.33323229500666,1534947.131,-12.1519955858881,-0.004712490705261579,4.951837871375045,1.014322182806756,-1.0889879274986665,-1.8757133858416855,1
20010306,1.4648173522366046,2277483.231,-13.385543375930952,-1.4305481763187295,3.074802158776306,-0.5631134476105252,-2.744377021522535,-2.79466457873104,1
20010307,2.588803310725382,4223980.966,-14.37494654557994,-2.6227474422347496,1.5211587538797409,-1.7799287274399223,-3.937418094033803,-3.240556385791475,1
20010308,1.885729016021704,2918573.426,-18.45744657610856,-7.341240054701865,-3.648763309550535,-6.398261948557502,-7.892710932072676,-5.8960052779440355,1
20010309,-0.6163791642660996,3348665.009,-20.746488121462704,-9.995301962246277,-6.644677534144436,-8.951710611041452,-9.461526078557636,-6.114227132544823,0
20010312,-0.9920584578692324,2495727.67,-20.69651299486634,-9.981304814824238,-7.0243236157274485,-8.700492223378074,-8.263982273192424,-4.1389050989944,0
20010313,0.1478684914267643,3304760.311,-15.537306456324881,-4.1866738578395495,-1.5412840737994138,-2.9700442706577563,-1.8301984314254376,2.5983505247308853,0
20010314,-2.3661756821837203,2139804.838,-14.43929632624876,-3.049018182479086,-0.8753577886616258,-1.8724954793686601,-0.22144278561758743,3.952531099217614,0
20010315,2.090015568435476,1517043.535,-11.520098287472095,0.13343368409206482,1.9038508431339893,1.092486823101306,3.41262918987866,5.826252508768974,0
20010316,-0.6249167095017778,2319471.195,-10.04276848097169,1.686090010851567,3.03832314809527,2.349505968359124,5.210177622936774,4.9398404629999835,1
20010319,-0.42397278199423477,1506173.668,-9.924722228831092,1.6955390069234748,2.811943565463622,2.2574052485070584,5.139730199138732,2.411267873712263,1
20010320,0.43725730587967343,2231235.277,-11.606813382497595,-0.3089330082650089,0.6930388450440416,0.13779665204480737,2.9986621231685824,-0.41572075200797565,0
20010321,0.04282596711512171,2688607.5,-13.435679042156254,-2.4212207223009754,-1.628762648467134,-2.0320465800731884,0.7565161531347171,-2.7279229861544496,0
20010322,0.04544927087765157,2369342.695,-7.974033477739541,3.722865818280251,4.1640331876378225,3.895244265655826,5.86208563803041,2.6088848489537035,0
20010323,0.30368655564682717,1756599.656,-5.108635152963454,6.9157892116595425,6.998939586289316,6.825629153909329,7.250690762452384,4.732631369327661,1
20010326,-0.023027589011429053,2068406.157,-6.472964630603206,5.3409553019798715,5.0672356604263635,5.125132898585514,3.9629990739969494,2.4780625468513517,0
20010327,0.02303289293135073,4398746.58500001,-6.32051495667858,5.480608264397993,4.897145881522739,5.061992786293943,3.0833202650252796,1.4761634061238127,0
20010328,0.3068395028194021,1336951.555,-3.7172071569056717,8.34456064104305,7.466018782601723,7.603130768959904,4.73669649549046,2.076850720066807,0
20010329,-1.6219623151720257,3181147.78400001,-2.594313728480171,9.471233169154756,8.306805532258805,8.544808551518006,4.996060730823367,2.1223257445218686,0
20010330,0.049997606497577035,2675607.042,2.0137918929412733,14.530793738597634,13.110648958294584,13.135860517315667,8.694902903584412,5.495587977171325,0
20010402,0.6308006514826394,4215240.19600001,-0.7376593159432618,11.353574106150317,9.84714976344976,9.520850029730363,4.796256560068255,1.4459812310953688,0
20010403,-0.025257274901253218,2985709.574,3.2481876561786054,15.73082731010025,13.939737216863268,13.063788053846363,7.390601069403768,3.505064889700938,0
20010404,1.5561577296288267,3780037.17700001,8.058800049473192,21.02040208237294,18.82535952415754,17.16985056837984,10.008151837817767,5.930040365652071,1
20010405,0.1786502105131385,4315626.174,4.762389773364753,17.2012483728125,14.769002009814864,12.283182370274345,5.31288296777215,1.1957581468308571,1
20010406,0.07443893631510959,1761288.859,1.6300384865138442,13.620430056436316,10.977304043459677,7.6032510281548085,1.4737853518955395,-1.7638332356652409,1
20010409,1.8587282052365373,1232731.544,1.7657495391473421,13.692435678707804,10.690396835038555,6.411318223353732,0.7434912820946225,-2.1462791103035372,1
20010410,1.476867153032683,2201398.075,-2.068700468596921,9.351077062105592,6.16238938727023,1.6316615136238377,-3.5278797386417335,-4.840407978839513,1
20010411,1.8177398310255979,2048168.699,-4.186362982403072,6.92043419375003,3.628047963724578,-1.1463816360650547,-5.591187136910927,-4.6600419707395595,0
20010412,0.4448079147883758,1913170.686,-3.570598296565232,7.44831850640283,4.079955718673952,-0.9542176965732091,-4.915426656560439,-2.4797542585869867,1
20010416,-0.13848239014713398,1715572.57,-4.916348288121959,5.786643815435367,2.477116030564354,-2.6209265552259953,-5.595523384863204,-2.567817085387669,1
20010417,0.0,2525981.49,-7.432557206899702,2.8677879680510148,-0.30986493776826046,-5.344697530304263,-7.453535059367239,-3.3537828405558976,0
20010418,-0.08778188782696454,4273067.211,-8.855511951480578,1.2144882362881555,-1.9803781662504671,-6.965516270161704,-7.73926432206096,-3.4654599395384693,0
20010419,-0.5399816176470588,3644715.852,-6.92787080652576,3.230315563725462,-0.07649739583332851,-5.3789206112132355,-4.429285386029419,-0.8544921874999982,0
20010420,-0.25447171278658975,1810540.505,-4.182257365897871,6.12774775306888,2.612385930716732,-2.8002963094218525,-0.770749042654764,2.2006634968449568,1
20010423,0.6865367655299198,4481952.325,-4.983594256284346,5.019431572895173,1.4134471551846062,-3.6728255202623044,-0.9994981313921101,1.3269795793074377,1
20010424,-1.407120939775218,3430293.137,-11.287953683025611,-2.1363318626650294,-5.4951340850082815,-9.896417742433323,-6.36735842547706,-4.621620640194625,1
20010425,1.6476656551020188,2732524.403,-10.765815949913911,-1.7245172284951684,-5.1614675889220045,-9.198084406412036,-4.981591346110034,-3.6676053257511545,1
20010426,1.9296725674782602,2153995.139,-12.361365909862284,-3.5806255693896234,-7.00036619567352,-10.446468444650861,-5.876636716028662,-4.244922384380416,0
20010427,-0.3331470194210031,2253858.129,-12.780648638577654,-4.104513232723845,-7.5827810456646505,-10.406829735700413,-5.399643341939266,-2.9080052877662665,0
20010430,-0.19091101475508307,2960571.57,-11.305579194301519,-2.599546136078164,-6.18468839630245,-8.294948512560053,-3.1489060888907017,0.06735916935699046,0
20010501,-0.3016279646310206,3673245.609,-9.408292703082436,-0.6780752738525189,-4.299773205152947,-5.9347023661956415,-0.8642995528377049,1.802697665023106,0
20010502,-0.9244761145750257,4667838.361,-7.339006610097992,1.4085462472457997,-2.304458300126578,-3.308611879424319,1.244011063710082,3.3773381463597616,0
20010503,0.1178760245182235,3061287.451,-0.7130872483221542,8.380433583130179,4.372458141471307,3.995144510990071,7.849138752620884,8.145885374344173,1
20010504,0.3799242175129334,3403466.416,0.2682234622175054,9.240227448639425,5.141856923878586,5.240728280830287,8.49375983325831,6.262830663071468,1
20010507,1.7647288486315507,2948861.089,-3.124192304689056,5.338636629836406,1.4102896966384413,1.9036963651270815,4.647932690430648,0.83404911568344,0
20010508,0.2517674956453032,1570141.476,-2.9764699855087513,5.227844704343969,1.393015891603354,2.2615893555044915,3.874633448970729,-0.4446916580060567,1
20010509,0.0,1752409.469,-3.5892969483454613,4.27470214186853,0.5538177137271412,1.6587624974593818,2.4042063084948677,-1.9047434693818432,1
20010510,-0.04436033808240361,2353297.568,-5.785354953492463,1.602606877740068,-1.9066733993704523,-0.6204312391163808,-0.7046686896239256,-3.155813327922003,0
20010511,-0.31268442193835616,2261309.846,-4.785963467798774,2.412743436958627,-1.0161053894039305,0.4517980544080315,-0.5897694606788717,-1.1485084429553114,1
20010514,1.5321002340841845,1578020.409,-3.8475766529797983,3.1491567212863036,-0.20080394489427017,1.359942822057637,-0.4591983575731976,-0.026670248282738788,1
20010515,0.0661009797946609,3078746.501,-5.851650180488494,0.7203412873283256,-2.443973559608065,-0.8486943884487265,-2.9281796446486195,-1.51038394824432,1
20010516,0.5306321522440083,3917902.882,-9.123752449939941,-3.0416286568458157,-5.961089986180962,-4.296562406857127,-6.122682153598814,-3.787765203175654,1
20010517,-1.6081153518709514,2962913.524,-9.166295794125217,-3.3536772688165004,-6.159667385889103,-4.245019121707753,-5.341915954576357,-3.122896949986252,1
20010518,-0.06239186516276804,1846949.155,-10.590884150253776,-5.1305804213442014,-7.842843299069413,-5.431477359717875,-5.760848883362611,-3.4292516073648924,1
20010521,0.1011270916885731,1776683.286,-12.50174163324575,-7.398604964735177,-10.03422763103303,-7.073580763379901,-6.815793112985759,-3.7022887567418095,0
20010522,-0.07997160366586004,2108640.228,-13.23068172584709,-8.484320006158251,-10.996009972929384,-7.754444411182333,-6.553394944255085,-2.9521923766106575,0
20010523,-1.7224194988932868,4712128.367,-12.28758839696766,-7.801399681576769,-10.122605892987337,-6.666695431187359,-4.636337356051561,-1.1954247153391067,0
20010524,-2.1165490553152746,4782395.988,-7.300200318688837,-2.9200045526975082,-5.168631914409261,-1.6152515365353868,0.9771909856589998,4.041247439107689,0
20010525,-1.0653418955770495,2579852.568,-5.58388930815284,-1.4607823619014424,-3.5350275711038153,-0.16521827702595251,2.9615208322722943,4.879367739725057,0
20010529,1.033051081497279,1779877.199,-4.411418327178115,-0.5532276410206144,-2.4417732717340868,0.7341590252715724,4.334976291781902,4.3700822415382845,0
20010530,-0.08864203235433624,3410277.548,-3.5889956574834527,0.08193258490537558,-1.7105554743527498,1.3352884873803017,5.039912489568053,3.08238522507062,0
20010531,-0.4674402083826538,2382680.178,-3.0401918067724534,0.4971394743073599,-1.305365853658542,1.7347856973715152,5.019985792090913,1.5879706369879243,1
20010601,0.3562263721355987,1491783.658,-2.774303793265401,0.5920330517358141,-1.2336152470579353,2.1653203428500802,4.65366353446762,0.9089227354011407,1
20010604,1.6439198618634254,1159400.617,-2.9270856494075006,0.23126522695553603,-1.4539820706294349,2.21711568938194,3.6834685526409143,0.20427182628852356,0
20010605,-1.9075845974329035,2617967.745,-4.111967327887996,-1.166249708284749,-2.646814469078183,1.0683547257876211,1.4968961493582182,-1.0786464410735188,0
20010606,-1.308084624102746,5595147.272,-2.889632130714025,-0.08081790706459865,-1.4297601057801372,2.4175481677370736,1.6479977332829834,0.05345674348319479,0
20010607,-0.09576738712946842,6342315.60800001,4.823421238965107,7.6431340386839,6.249535171591721,10.215400210892016,7.842228323714127,6.416414937674765,0
20010608,1.1665623399533387,3808243.829,6.511212966172261,9.183758141363546,7.844906700878912,11.44827033206936,8.156262448073758,6.2587750836769205,1
20010611,0.8709805355680444,2904145.79,6.104440404019595,8.549423381011493,7.34831495397866,10.551432147474376,6.560167706246234,4.020211281026424,1
20010612,2.0024358063533976,3212892.284,4.588338577083113,6.884933522784921,5.854409824418968,8.628793260935767,4.144727494164207,0.7389627524611843,0
20010613,0.6063799119258024,2287501.115,2.498320029424335,4.675676213008307,3.7568118333548908,6.095658916269875,1.4633140153285025,-2.381283736095487,0
20010614,-0.12016895243355973,1658294.465,5.497898321725496,7.632185847676869,6.8439746775892445,8.491751807647864,3.590188077194481,0.35529101340779823,0
20010615,-1.6872914313083478,1274170.008,7.44382116064407,9.480157015456818,8.924850194967798,9.675765164017625,4.488736639890034,2.043803980570893,0
20010618,-0.2697485129917578,3454781.681,7.705786288218694,9.595658979442739,9.249368673693015,9.022200772200776,3.690180528018374,2.0092872795575567,0
20010619,1.0869799177769548,3383662.112,11.102262209690236,12.8752233151811,12.634645601498107,11.213193353279223,5.410792311500447,3.9982565272605832,0
20010620,0.3767957927142077,2413768.87,10.369724858901966,11.92537839917907,11.847603471865947,9.210759791345986,3.378655720882498,1.7873482127586686,0
20010621,0.8714727726149141,3831025.26,12.697000867652891,14.078923673827987,14.04832663039626,10.182097973839447,4.838665669866238,2.5834229180422548,0
20010622,0.270478689732172,3713063.053,18.83168744173195,20.08187447486851,19.95495091099527,14.877363811102292,9.438152457903133,6.075872149902735,1
20010625,-1.6567378110232673,3006989.566,15.59804091733664,16.660337954357104,16.46003448970909,10.719048845490603,5.603345949698769,1.7404985330675582,1
20010626,-0.26672707194835554,2282603.452,16.899898066087147,17.8303819690234,17.485211088144542,10.935781634906718,5.6512727581617925,1.8559900331285135,0
20010627,-1.3950542552237413,2438042.213,15.6914794637252,16.483488027979533,15.93153080441216,8.853634203210484,3.2903439153439233,-0.16321406151914025,0
20010628,0.027194667530722475,3613625.087,19.394180919758316,20.01690698266481,19.21471057930426,11.264494179183941,5.31482167241417,1.8583794292591376,0
20010629,2.1335368734779916,2993148.674,24.927470650238046,25.36384012406256,24.280667320902865,15.102587867553542,8.623196307200237,5.58778274512654,0
20010702,0.5583108128173767,2142921.285,22.440640869539358,22.631633653075124,21.440928934160887,11.577851691266014,5.118938021560282,2.3101000801829454,0
20010703,0.22958106048084326,1693853.783,26.139343459388627,26.043075529107796,24.663238256163496,13.451368609228547,6.974978725488387,3.835289363968618,1
20010705,0.05657265975757658,1523297.161,23.94482360163218,23.600717389472635,21.89794051445011,10.15569518169452,3.9007450739657314,0.5994294587079696,1
20010706,1.136055144411783,1454308.1,21.485977833646107,20.88730332967436,18.942235284397395,7.225517273939759,1.069780343000117,-1.7518265406088258,0
20010709,-0.5973826198090506,3420712.248,19.017950393532296,18.195968101040354,15.96208673324816,4.481381671399055,-1.0101722752008062,-2.8190907986884266,0
20010710,0.8190067288438435,5422460.946,23.69649847563726,22.572204282647515,19.868586100938693,7.8044666534374905,2.1916547904677763,0.8021695861069411,0
20010711,-2.1432830009612203,2901803.012,25.09820287880077,23.6640587927531,20.57009016024435,8.072718313115205,2.6455522162872716,2.108362636426687,0
20010712,0.059164521428253,2860494.568,29.361825666072928,27.60006671743905,23.998199887965082,10.478854977687437,4.9659804001787755,4.723594685263637,1
20010713,-0.33108129742883863,1781777.142,31.56148698408633,29.441375556338233,25.429220966347536,11.144407799942373,5.729307418910709,4.848131664051738,0
20010716,-1.759902179134459,1850046.279,28.096173881579368,25.75771867767152,21.70376747580996,7.283568215705024,2.7013656242007014,0.5658388076834187,0
20010717,-3.669426432617699,4303020.05200001,33.441453072055246,30.738535481311395,26.306015335887146,10.611484355183835,6.116989795586547,3.209349818219651,0
20010718,-0.3130495017850522,2684149.85000001,36.54745697234505,33.51318804284115,28.62270208344433,12.090304790323447,7.796797570203023,3.8018862897639365,0
20010719,0.255316837330577,1813039.991,39.08143995980121,35.72579243284352,30.34421598717985,12.920729554282003,8.613412282369572,4.24654371621805,1
20010720,0.41264824269929834,2665010.28300001,38.20212334873164,34.59027608936435,28.848799200367413,11.122491017640563,6.582786287381463,2.590971715698191,1
20010723,1.2462235649546853,2255188.572,35.464027799862194,31.653575025176227,25.592661790427734,8.254723856468974,3.100983198176686,-0.5982668150739447,0
20010724,0.37483551101245466,1809637.772,35.79561163319286,31.708339425518073,25.19209655337417,7.657842967846549,2.3707681469567827,-0.7252136695333217,1
20010725,1.8138464295067016,3511023.353,40.716372858462094,36.16170247956666,28.94313122820557,10.549873885297675,4.824335313494972,2.248563119374818,1
20010726,0.41328802658108543,2802396.41600001,28.191692156948957,23.77254084202726,16.840067583270006,0.15278466940096783,-4.441527281406452,-5.30968337614863,1
20010727,1.449266428307232,3274957.558,25.765186166933766,21.15401306867215,13.942769079028459,-2.031901121933213,-5.840155344593775,-5.321292072494154,1
20010730,-1.5129973847260851,2887720.0,19.30846190300665,14.715438307034326,7.5458901584961176,-6.847161520954375,-10.010765333286534,-7.801707241441856,0
20010731,2.9327975530032733,2432193.0,22.206990134044986,17.221375236153158,9.533835127597667,-4.558491018682378,-6.974240561369853,-3.5366299817075078,0
20010801,1.0188361316723824,3085039.466,22.52864235421552,17.199374134922042,9.121261358849347,-4.148853583679387,-5.693025215141137,-0.6734067521213343,0
20010802,0.637468357548921,2070800.404,25.302086092103355,19.492384254839518,10.800845030518413,-2.0171100202634795,-2.5509820708174993,2.044826035809075,0
20010803,-0.42716167403812316,1068470.837,23.01067601662659,17.03797261566944,8.041385068702875,-3.8719543554154274,-3.2290639350907653,0.6143625549834733,0
20010806,-0.17469845930825748,1375996.437,25.83278817502055,19.470230019638077,9.900805967005555,-1.9318737958505683,-0.2678709709393281,1.8410244020294813,0
20010807,0.2652935790173532,1145671.64,27.268332225330195,20.61260865747651,10.552889379476467,-0.9320396874176595,1.530674962056137,2.1882016482069306,0
20010808,0.3566685638398786,1455749.176,28.199206349206342,21.287674698033264,10.770872067286422,-0.30500221336873734,3.199266426358074,2.021754252829945,0
20010809,0.031080955970848072,1845153.902,33.886537978283,26.441845547487734,15.029004483593255,3.9986311153434158,7.387810974883953,5.211284370908217,1
20010810,0.09306930693068721,920662.878,33.47489108910889,25.79052145214521,14.02743234323434,3.6514191419142077,6.480330033003318,3.1966996699670034,1
20010813,-1.5384414037705292,2984651.915,32.211884149014814,24.270127014664585,12.285596497771875,2.5135292539442697,4.378112382784606,1.1812821871912011,1
20010814,2.918634964815649,1785605.59100001,31.946844515880308,23.728789749821978,11.351640956282557,2.333731893290481,3.3244474064200737,0.19091675323911944,1
20010815,-0.5083302621713331,4228366.918,28.254800543913344,20.050629694112267,7.5673601138660045,-0.24978078257442987,-0.07504225495304644,-2.6593297665493214,1
20010816,-0.13806149905412318,3471679.23700001,18.55618221767891,10.798400836593926,-1.0325590139471268,-7.098006039456206,-7.1491181688932635,-7.767868682952041,0
20010817,0.027711773966260646,1334312.81,18.95112999180439,10.994416372351898,-0.9909494525450498,-6.128458812638919,-6.559553781477921,-5.300849631197558,0
20010820,-0.11389933468324284,1348136.277,21.526154662038387,13.249210539002988,0.8671897599074562,-3.602021261209138,-4.2225315784398845,-1.626892295824903,0
20010821,0.995511172262658,881743.97,25.428950759863277,16.771810659876337,3.787437508171434,-0.0960646490807681,-0.9800710990468362,2.5708967071553466,0
20010822,0.9969635943062741,2450422.263,25.51267559091449,16.769956417914162,3.481553991283639,0.5260713150068361,-0.6948817547556713,3.0957621253593115,0
20010823,0.682600322040857,3068875.85700001,27.015694755785713,18.03961102516339,4.261913933002913,1.7828750039465866,1.0243424999210884,2.915669497679416,0
20010824,-0.602425064979968,1642263.73,28.677068795534023,19.482849131253122,5.20176438201819,2.9996734996991203,2.724292902779744,2.6249343798414833,0
20010827,0.09164711311594263,2108230.791,30.534803153700697,21.15252419548785,6.312354160843967,4.01892090399153,4.361232621172446,2.6221474023568296,0
20010828,-0.8902794288625491,1464468.286,31.049941867300728,21.549177650916413,6.331487021385023,4.085161138617105,4.87759474323635,2.144116840193876,0
20010829,1.0895106468886733,2134815.452,32.68808951726605,22.921397697862698,7.293764107044787,4.978024451107725,5.863500069500983,2.278043646617291,0
20010830,0.8713500629014144,2963603.789,32.61238164603062,22.706104747401195,6.849447129709348,4.635569092233323,4.6262331987022485,1.3385420115208966,0
20010831,0.031661984734879405,1574207.985,34.808532568056435,24.517659977230323,8.242571222624207,5.892093261386509,5.024150684100951,2.0592415944167044,1
20010904,2.6857949200376363,1756894.467,34.33298951753795,23.847775836581103,7.633113828786471,5.200477086413092,3.607982798011005,1.1245800295659332,0
20010905,-0.3397783882543166,3209665.83500001,31.211977023883048,20.812891862406204,4.924276081441664,2.6531302987683674,0.7788614466541279,-1.2174187357878015,1
20010906,0.44200527988070687,1507428.489,33.91096750790974,23.115794635480018,6.871449011533803,4.611364506572978,2.232932752053831,0.669456629071588,1
20010907,-1.0721590390953746,1581225.348,29.68345253449017,19.01839475775461,3.3066531181198844,1.514440927033247,-1.1823712562368962,-2.0583369158817675,1
20010910,-0.7063005142076844,2168841.666,29.935397351209758,18.992786718152818,3.3661328576749074,1.8775114177626937,-1.0841484211145387,-1.1547784725352908,0
20010917,0.15260533014702257,2546337.246,28.972482336744754,17.909118655514582,2.5905111953867968,1.29311912307133,-1.6794378928775555,-1.0870694581536862,0
20010918,-2.5685345870639837,3237952.09900001,37.104020465309226,25.132436823728728,8.89935354513087,7.555225222110834,4.0961731254537375,4.271718463719024,0
20010919,0.03449161560194991,3818974.30300001,45.24278061130883,32.3124940373537,15.1910321799435,13.387039958903593,9.403221663670058,8.826918137452743,0
20010920,-0.24971347466053165,2475517.04300001,49.90836502189736,36.173577430152356,18.61535775819539,15.812175998664163,11.688260430660877,9.250631873761874,1
20010921,-3.6722190312081167,2412779.333,50.94716446486694,36.719264790350415,19.08826345012446,15.360750526517327,11.325751483821552,6.791958644457212,1
20010924,5.541667605041708,4597785.84100001,47.70779376768835,33.334857254389725,16.137242979077985,11.851263803496758,7.952540744243997,1.5599546577183272,0
20010925,-0.5894094164611843,2516988.641,53.73593205745372,38.26254941098196,20.491863332159188,15.340025830691554,10.651011702086015,3.25310163985755,0
20010926,1.1614096340403801,2510395.665,56.232509107141446,40.03148639707931,22.084256004336332,16.06591418163267,10.81665351412103,3.425401152641268,1
20010927,-2.5316760804415854,3139909.43100001,57.10628058137757,40.39300836393142,22.500341466941975,15.62532640222398,9.361577336236468,3.0752914520781363,1
20010928,3.0375214074420063,2343234.77,51.87740152576678,35.36419897244279,18.257589911256414,10.94788260937259,4.044527479370998,-0.4611552234158421,1
20011001,-0.6601732400918592,2831957.58400001,43.746010530280074,27.93582879802686,11.813128143022764,4.5658659420022385,-2.6737016223720396,-5.249928001240599,1
20011002,-1.239149910037416,1265619.167,46.25028795555319,29.93837374748743,13.67486994948544,5.838759946700002,-1.6674320387253245,-2.64075944983551,1
20011003,-2.185010327530237,2215843.602,43.018102685157885,26.81292416642079,11.173074653290051,3.137319268220716,-3.6975508999705005,-3.1078489229861352,1
20011004,1.052540390696059,2565478.47200001,39.65609433880542,23.62174239470985,8.669597609044049,0.48046519686403066,-5.267971874503702,-3.1498245766015396,1
20011005,1.221229019736489,2855989.99700001,31.934933847247287,16.614844732382046,2.848737083811724,-4.9520255863539315,-9.244983871849533,-5.874200426439245,1
20011008,-0.12709057231318763,2054424.795,30.23314359882644,14.922609953625463,1.6969971472222605,-6.009018022524776,-9.230493625190974,-5.200032448656765,1
20011009,-0.03121679064824458,1789646.629,27.71998538788525,12.516511689691823,-0.08091126461212159,-7.706429330499459,-9.303799149840614,-4.503719447396396,1
20011010,-0.03103272962570223,2584406.648,26.72967191141808,11.476609905383182,-0.5862412761714919,-8.165239381194171,-8.121727532633885,-2.9680494939024085,1
20011011,0.0,1942983.627,19.83149328512721,5.2738554691654,-5.811458131345059,-12.801199732280825,-10.743796483370755,-5.405550794713167,0
20011012,0.05820648908471636,2258804.414,19.66205187262166,4.949228920488672,-5.787227117965158,-12.539993490887259,-8.731849589425192,-3.6671339875826248,0
20011015,0.08879661822457201,1933051.316,19.317866880112046,4.469127541959536,-6.007316341079065,-12.431338952950293,-7.2798844393306625,-2.2519322644388318,1
20011016,0.579456799715134,1764599.014,23.253970412094127,7.6996471464180765,-2.84306756013077,-9.017318960214931,-2.6017286588326445,1.7084587744003246,1
20011017,1.4965562377286639,3280028.136,18.40001869916162,3.2430080718047885,-6.535955371334183,-11.655312120173281,-4.681646772836335,-0.9628821641163056,0
20011018,-2.2087071867452526,2201979.214,18.535517638372664,3.175914454831022,-6.209245285379985,-10.438268824066773,-2.9833189423233395,-0.5889051569871606,1
20011019,-1.7240493319629995,2142713.165,21.345988566289815,5.432258478931141,-3.8371531346351455,-7.249100719424444,0.1986125385406079,1.5298047276464581,1
20011022,-1.5574379365663917,1845107.016,17.597063652082724,2.0870479840698386,-6.565034738044559,-9.023090031772957,-1.8617469522281518,-1.298884512387711,1
20011023,-0.5529914054631907,3970886.0,16.10747496091988,0.7130376219515999,-7.486762188980962,-8.89624151204532,-2.163648383967585,-1.3904490043065358,1
20011024,0.14574999224733168,6609608.0,16.26944521971037,0.770298012218196,-7.097094303346055,-7.4407541786832745,-1.1855986603404967,-0.9169225044190182,1
20011025,-0.17139731355982635,7424401.443,13.73736400656416,-1.5368625782532175,-8.79581839178268,-8.076794505561308,-2.8812374642922376,-2.32893697198079,1
20011026,-2.167993598489427,6872104.81,7.60141961556398,-6.955316074584501,-13.359457483492529,-11.63169438543772,-7.211025335474827,-5.414227242111809,1
20011029,4.64790877957131,6937954.08200001,5.325607506163912,-8.998939297340952,-14.81039939968746,-12.212862712352123,-8.082610682629857,-5.376069870966656,0
20011030,-2.317191852075577,5194386.06000001,4.265003299887027,-9.97165452979409,-15.262391355414659,-11.6900734923991,-7.519715426692175,-4.302269651106884,0
20011031,-0.5337440894110979,3039351.407,11.12177305726701,-4.178165448727186,-9.42582509433065,-4.780024597602351,-0.8601399436404407,2.9003677699766026,1
20011101,-0.7353117866154182,2089182.26,11.62849933918057,-3.8539348792503065,-8.907220953982964,-3.348221795025841,0.15565300973208704,3.772678120869879,0
20011102,-0.6390398470552823,2996653.857,9.483380833525127,-5.721631174287358,-10.528261138942494,-4.383707139190282,-0.8111026535200137,1.4278380627002838,0
20011105,-1.4452091378474028,1613779.545,13.740433317166307,-2.094030684601864,-6.945856842027753,-0.05608320082513558,3.366711074820587,3.768471847890842,0
20011106,-1.566650131548385,2024392.524,16.12390036230746,-0.08397747037812808,-4.844308256466008,2.4925121030786848,5.557557909542439,3.677577751684373,1
20011107,-1.64400648621678,3575082.378,15.187573281776205,-0.9878632905077014,-5.487613820631185,2.077366845453415,4.7887613820631385,2.0846950230759664,1
20011108,0.6522681828037283,2522101.416,11.122184345563605,-4.596304415909823,-8.637536437880971,-1.2387674962056479,1.2846009299187953,-1.4684767158929573,1
20011109,2.4048601972201578,2445840.41,10.747471651854106,-4.9875730862372984,-8.721794571337611,-1.2630924266734112,0.616718645778862,-2.059454489733395,0
